0.000000 -0.000000000000000000000000 -0.000000000000000000000000 -0.000000000000000000000000 -0.000000000000000000000000 -0.000000000000000000000000 -0.000000000000000000000000
2.000000 0.000236316866505657162617 -0.005778501747628011706026 -0.004322234085402691314282 -0.002547287707101052699199 -0.000384890837505249216142 -0.000039277689928694494098
4.000000 0.001060119598433687578692 -0.006937315725426518656094 -0.007460600068894453901214 -0.004456175435306316753858 -0.000399281366329708024311 0.000127882358765547468745
6.000000 0.000932637208779102020416 -0.008916340971163104825448 -0.009898275752863413753935 -0.005682856647516098050343 -0.000276662364828082459403 0.000308803387214479465369
8.000000 0.001173687502807337079691 -0.010709117484428997552071 -0.012164788737861234949045 -0.006639521920038346514126 -0.000088185305372722792264 0.000501233688602585993402
10.000000 0.002180899790545797259367 -0.012658342051177114140348 -0.015090773672909292557609 -0.007901618009668723296990 0.000157796732742641795380 0.000731857537761204852457
12.000000 0.003187497278927773312895 -0.017901745143095296186608 -0.020704250295429139916425 -0.010374034669455552484796 0.000352853089457517271870 0.000996650437755313518481
14.000000 0.004912404001671296337184 -0.023307993780836117059252 -0.027857344459336911418612 -0.013919856309802870406034 0.000546505130490107841022 0.001322530871195722913802
16.000000 0.007065681999768089367742 -0.030717222786439273701786 -0.038219797367589410097555 -0.019254871276081515080181 0.000766931239120358272665 0.001776542606032122800785
18.000000 0.009798694873185609041655 -0.039979712508220542621640 -0.051457667146019736570395 -0.026201962094779769618658 0.001114386865527242521240 0.002426377227747132745567
20.000000 0.011912003991810452344091 -0.048902294413674676776260 -0.062804907211722049709124 -0.032316132940031869202890 0.001803194182577114819052 0.003330936643363659709072
22.000000 0.014281968335113515849999 -0.057016614423511802201006 -0.073937305018133961387328 -0.038233659786296766980307 0.002535618746806407412808 0.004247006069750420935438
24.000000 0.016702713811551257727661 -0.062544364127575524658909 -0.082903048914918897605020 -0.043155095126739609345812 0.003353899088041604852062 0.005193337686347581326485
26.000000 0.018754484922447529904321 -0.066918704515769603102804 -0.090645183830915590506017 -0.047769913491727850063384 0.004429653324958983742765 0.006477713755686257887656
28.000000 0.020237972517700555941111 -0.069716891950947740275168 -0.096071135965949391866125 -0.051522840388951031409537 0.005197186830386082284639 0.007465485371902426392499
30.000000 0.021665886060496849369050 -0.070647601355557324009915 -0.100573569608275029119149 -0.055069365084787436082081 0.005939764568723059252886 0.008462318061367197705169
32.000000 0.022958190853636258749182 -0.072242387785163342250883 -0.104613330374391605426254 -0.058489044849735161157867 0.006450184933900574360544 0.009180718382131343099917
34.000000 0.024737210901039669019852 -0.072524555786240077481786 -0.108611516242033551149504 -0.062332782363999951480427 0.006843560245058437352395 0.009903933672492174974944
36.000000 0.026465052528635922557410 -0.073032594998550914855429 -0.111519158148261049445793 -0.065843211895268469180387 0.007151117344597998810862 0.010440342798421714184953
38.000000 0.029151298259735416301686 -0.074152127349370738906842 -0.116130260899816664665885 -0.070838490380160601400661 0.006829642104496048450601 0.010517575173899861018523
40.000000 0.031931311189726876986761 -0.072219887302292576358731 -0.119083261729417036467460 -0.075390979893230111730240 0.006469939788519738291250 0.010597157935610477391686
42.000000 0.034187880153504018876376 -0.072511149967977958641363 -0.122571398416442323142661 -0.079910327199621405958041 0.006348815453494058985706 0.010922083221283301543436
44.000000 0.036902380087744532377592 -0.069783144013561018703662 -0.124239606073410807640656 -0.083731541603764073067317 0.006085310709079007340794 0.011036934228539449498463
46.000000 0.039317736826981058984032 -0.069411314004039825764636 -0.125982681914120875354968 -0.086691953282759817711600 0.006334016148935322013114 0.011472367599432717680252
48.000000 0.040449758610427502536488 -0.067255016340452528078586 -0.125997110638021131423514 -0.088426300418522021939971 0.006949674499792382262320 0.012081435706823753784001
50.000000 0.043373793672109105246104 -0.064993689254306361013924 -0.127100283679902809064188 -0.090913488893025987125363 0.007194209552785368715078 0.012384358656998467607124
52.000000 0.045623198459621414069254 -0.062038305245559345613149 -0.126511559992390665296824 -0.092479855364441476694992 0.007727860172317927746344 0.012909199012810549170305
54.000000 0.047353547204199458731111 -0.060508687249949864861431 -0.126807993957677361818170 -0.093972739970153928990015 0.008520988174184613087037 0.013732470966112818311355
56.000000 0.049450711221430562747337 -0.055244395754877662074733 -0.123496815277995886095397 -0.093048489812097151530068 0.009659190416312414886879 0.014555702043483602359242
58.000000 0.051612568617697307526981 -0.052606970350966182625729 -0.122104245056300200755750 -0.092766886945819693188753 0.010277931759501564637493 0.014963947035649146841130
60.000000 0.052949377114083553963475 -0.048698042600271350399677 -0.118304925978950023490732 -0.090660451320985907530670 0.010888775051663295012627 0.015053157240290718915654
62.000000 0.055028949136344970649581 -0.043906420959924523372830 -0.115073172546617738531971 -0.088648751296042826997024 0.010988461812083485241720 0.014457238133450263720126
64.000000 0.053721635181658317081954 -0.041867495391456642506167 -0.111679579616953225662535 -0.085838256597729728492041 0.011400128678769020848516 0.014045629758652448601519
66.000000 0.046892565393055675448952 -0.045975474885056329121813 -0.109686203932455553222702 -0.081844932412808060750997 0.012407905353079567642438 0.013865376136936960471679
68.000000 0.040727678382291930547776 -0.046850322704884310442974 -0.104669136897377626493899 -0.075473125651280933978704 0.014428395675474429971086 0.014429014515036767130063
70.000000 0.035274813654426057096813 -0.046019074001513449179157 -0.099127783289921556075797 -0.069911500766614037560842 0.016564872137622550091196 0.015512022815037260214943
72.000000 0.031885160760006379943032 -0.045833860239948211179328 -0.093364464945648872884476 -0.064222128848247198029675 0.018918438258207919550058 0.016929224376905516874503
74.000000 0.025210830891811066012398 -0.047210917537070948291067 -0.087900231372476850255637 -0.058911157228726356016590 0.021305262017384599126935 0.018489859386869339497039
76.000000 0.019566003956073951125516 -0.052680296987915660456014 -0.084919444794872248061246 -0.055234516715252271468195 0.022774521435448051576156 0.019373449329337717739197
78.000000 0.011480823242099966186025 -0.059194266216144902914564 -0.079424379698535288452099 -0.049122219400402976352549 0.024868042799857274088859 0.020429900973006499126372
80.000000 0.004560212500985923872454 -0.067276775726702472968377 -0.074991629834857867487052 -0.043358588992963471853148 0.027737239488839271484011 0.022665721086528822086903
82.000000 -0.001689595563197579617537 -0.072085699806231195996276 -0.068701369366078610112503 -0.036963364406847318277549 0.030105369325901028265680 0.024184571778289341154045
84.000000 -0.005710187584188447865174 -0.076828465495064071633102 -0.062609306605976730586427 -0.030553520395866524267392 0.032061667061661601463296 0.025203441800440738035372
86.000000 -0.008838882250584413624583 -0.076766993149099002624602 -0.052045028998788323004732 -0.021757425393754161596638 0.033938883917270720735893 0.025877337713467236934850
88.000000 -0.010573821748397283989962 -0.076693220591859789792011 -0.041967052343841626527166 -0.013111379544461586321713 0.035644486274136882864028 0.026359933475150521681174
90.000000 -0.009418383454089561748757 -0.074863041268957125629058 -0.032338776837983217171679 -0.005858251421210029612208 0.036609977775997747106995 0.026265996471971541498247
92.000000 -0.009649003127515579439355 -0.073665287090212069887052 -0.023745576217872991359181 0.000511653838495627357429 0.037282026279747582098167 0.025979941976173655249216
94.000000 -0.008370930763568611501779 -0.067731858935791103282220 -0.012555897328689792288858 0.007971004509323796963227 0.037996566893967749500849 0.025613819924607927891458
96.000000 -0.006256179626734861658199 -0.062157314638893047809010 -0.002432346124756775383735 0.014643055638239900473341 0.038398551865047141073983 0.025002490443598111846679
98.000000 -0.004025867520917681199877 -0.054006215341374730343205 0.007226836370147334161207 0.020018773662338004010186 0.037834494760273368330061 0.023757845699530440175540
100.000000 -0.001894896394560066556906 -0.045328887760293277986445 0.015910372912950995066828 0.024091464573820518813019 0.036138727505846512944032 0.021798417459955175129460
102.000000 0.001159140672847621279101 -0.036159487962814776396137 0.022131789104441145638047 0.026172823622018021733071 0.033684160391314055260636 0.019466390420224358864809
104.000000 0.005037278255826029699227 -0.027936425577238969270022 0.026684874667802654241155 0.027012106118579470165342 0.030484267901317124022098 0.016688384186123388086553
106.000000 0.009798323130825983134917 -0.019418639737507153997242 0.030418970760258994684433 0.027239929651016799028174 0.026767674645802732452671 0.013678740418758574687308
108.000000 0.012806524497926260672265 -0.011593760293875373518224 0.032753639864239597612183 0.026629206722180710081860 0.022898933928172892499076 0.010717120089569584506783
110.000000 0.013155540097694326875932 -0.006033976434399190152957 0.033338302671178030034405 0.025146864012232639923328 0.019215725026507052969338 0.008179232094214840612101
112.000000 0.013437616834736845067289 -0.000740833867887681412831 0.033147909007701509276345 0.023675911347499790232662 0.016354943271995964204635 0.006296850389515964291354
114.000000 0.013058697036344020861454 0.003661186251277363801204 0.032663566793237328034216 0.022347917100932292167048 0.014040019516284156855801 0.004878223966855410945187
116.000000 0.010408534662773716653050 0.006828872763528366120200 0.031987029788271711949754 0.021439974131934810830380 0.012611912608579299230338 0.004130089004214688476468
118.000000 0.004051046833144039856223 0.009167307731759496286505 0.031438978645429264957567 0.020761467176015964419822 0.011362268847076278932562 0.003565731971905726407218
120.000000 -0.001254655218647645264704 0.011462245874355096383890 0.031067421099197536915604 0.020232675918722464736277 0.010304448570115760930310 0.003130237202190649763167
122.000000 -0.005995048744413984664892 0.012335019059913607947232 0.030250630974608158640926 0.019486031178143056741270 0.009264051203121690183928 0.002715503631186610977721
124.000000 -0.009882847487589213955617 0.013637812499780885971967 0.029424883212745618632500 0.018632883461062850483092 0.008121798569022602859446 0.002261221229851108523168
126.000000 -0.010500628056597773041236 0.013832287790911548461259 0.027938874887810050129389 0.017454258029450522154979 0.007046610736372753598655 0.001828374508803439282834
128.000000 -0.009383989716793481039581 0.014218780974884697582139 0.026018579734546992687783 0.015949750321648518969209 0.005824435129653131315575 0.001310577349270320834246
130.000000 -0.008303653340411460553883 0.013860274672925342737129 0.023735368249576723614913 0.014387951798577543888191 0.004745518929346077309506 0.000904714461812828360347
132.000000 -0.007126484672483284106559 0.012932624844830327426326 0.021275804019969583869010 0.012730361411269160154536 0.003655007076092280093871 0.000496535170935251510445
134.000000 -0.006161601111829024396416 0.010823908555645153292679 0.018329097119032113083481 0.010966646928820324505272 0.002658644591433298107197 0.000161119480351447488331
136.000000 -0.005348632559519823567729 0.007495551360188934704454 0.014709289137891410487180 0.008883577416434864162942 0.001619517805770061789905 -0.000151858905779304203826
138.000000 -0.004597263203967050584908 0.005261538530830438264996 0.011776743948273748693878 0.007145538577918089141738 0.000782869049294480012433 -0.000411017871720288196623
140.000000 -0.003686034928538782680374 0.004453220471250405806951 0.009478305724476261337474 0.005661280915451583767295 0.000053550950261403602859 -0.000663955924939679462127
142.000000 -0.002830712636461095183665 0.004153701107542811556128 0.007568443029951379269482 0.004428524925947354036471 -0.000530992519677164027600 -0.000863830528399371893461
144.000000 -0.002268782630263132052417 0.003922784088105299438176 0.006227694000931195857096 0.003599028953766794918651 -0.000927471006797410207033 -0.000999864187427729200763
146.000000 -0.001998778746607992543721 0.003667736058786016852679 0.005324390347923335133073 0.003060632017235352664297 -0.001145556271963730880781 -0.001049274752068406896255
148.000000 -0.002004505309252068139675 0.003846602058444882361182 0.005480927085052834588086 0.003172947785350696547901 -0.001145231523822784654165 -0.001051140738040728895772
150.000000 -0.001979425695063821970948 0.003991485949741822858439 0.005582607015828367109933 0.003252555856956294844107 -0.001148705549051646243944 -0.001047849751274615871105
152.000000 -0.001932450267497837085098 0.004123023820539828757092 0.005665487163301414358374 0.003325313535802723683560 -0.001144188411903789264618 -0.001033369258335655295825
154.000000 -0.001896454140805158439936 0.004213812675852864932102 0.005709402124730353356163 0.003370076513090596980610 -0.001160560647586169301382 -0.001042802572052555724197
156.000000 -0.001890192983649004220340 0.004263357812365670129751 0.005726667424772926423548 0.003401461656613337641158 -0.001173832121804947292015 -0.001047744965306091112847
158.000000 -0.001941190129064341001602 0.004258178334293266295574 0.005716975440046572973229 0.003424493019017955421079 -0.001177442545208341696458 -0.001043418532823624147315
160.000000 -0.001856677205092617738771 0.004365974818066254391213 0.005774878339408480269757 0.003472516923901156678939 -0.001197723876208718141526 -0.001064347674377681294763
162.000000 -0.001778762407852583441598 0.004465409790653023132390 0.005826587560857176065210 0.003508379667630201394907 -0.001223907456362284323567 -0.001086829877253282046132
164.000000 -0.001733691711648945813634 0.004540030410985332158524 0.005869225202339445161825 0.003538494980408650632253 -0.001244256356974245310287 -0.001099332555434895082949
166.000000 -0.001722527174365598087724 0.004587234115040817947206 0.005898571209236802385945 0.003558096175864945177880 -0.001267025243353255047410 -0.001112143091735759078964
168.000000 -0.001732641013720745718982 0.004618941120151271416405 0.005922151217417915766705 0.003571442653365756655925 -0.001292937190173645573693 -0.001127324271230164924595
170.000000 -0.001744046942062684336233 0.004655998005024328777191 0.005956814907790737925741 0.003592012873152395768112 -0.001315909212544799124223 -0.001141570694977138943071
172.000000 -0.001757164810465884369900 0.004697943017190434403241 0.006001538426985359234167 0.003619037294676886052508 -0.001336584896376447062494 -0.001155238488942680885607
174.000000 -0.001772147080229081149427 0.004744463379021192882268 0.006055424752243089223103 0.003651849863549371747601 -0.001355489627323409451004 -0.001168563283692313197609
176.000000 -0.001789072408506715491927 0.004795269075579192651071 0.006117664573609410058608 0.003689868196849637946300 -0.001373074392538864863661 -0.001181735949320648513747
178.000000 -0.001807974418803551686780 0.004850120996731739110575 0.006187556460138609812360 0.003732596889197496367596 -0.001389724774277304548617 -0.001194915891543843261199
180.000000 -0.001828868342904722181855 0.004908832487378233383479 0.006264537660211260371168 0.003779646662814890867299 -0.001405762025060764948761 -0.001208235302937360738235
182.000000 -0.001851747467650613704696 0.004971291389899697675536 0.006348182267695024090515 0.003830725315523235245674 -0.001421452440420528737924 -0.001221805169637614138511
184.000000 -0.001876594405426109659837 0.005037451510823352449076 0.006438194902999880113448 0.003885631355575785029349 -0.001437015241376483724867 -0.001235719396325323394398
186.000000 -0.001903397359386535319867 0.005107319328420658645362 0.006534399544525832173592 0.003944245688231430048420 -0.001452628513105849337658 -0.001250057619806164239604
188.000000 -0.001932150000755374812458 0.005180961067404034163519 0.006636726533223842594555 0.004006517883204416090315 -0.001468440246019017984477 -0.001264890056227741498007
190.000000 -0.001962850864888643267342 0.005258487101401639746134 0.006745195057283020177719 0.004072455779343068377196 -0.001484573611095416339339 -0.001280280015912099288861
192.000000 -0.001995515692088842621410 0.005340047518311454195772 0.006859907317345035823730 0.004142120469179707241414 -0.001501130772049035855611 -0.001296284242573569932613
194.000000 -0.002030176051426428075752 0.005425826946818163715180 0.006981033798629064125729 0.004215614016764002852655 -0.001518201916640705886191 -0.001312958308233956724806
196.000000 -0.002066879150731596673923 0.005516037250163279524739 0.007108805466120344737635 0.004293077418287401421371 -0.001535865861848426149397 -0.001330355506938178363277
198.000000 -0.002105686613543330133053 0.005610930257159018122448 0.007243514118220026158645 0.004374686335137179318822 -0.001554194262390630985882 -0.001348528977164436051805
200.000000 -0.002146681570248490031338 0.005710773341459030906508 0.007385499795299103713286 0.004460647208963540791271 -0.001573253670416723589559 -0.001367532252352296256656
202.000000 -0.002189954444722764723141 0.005815866742683427174920 0.007535150298271799627903 0.004551193167066663707032 -0.001593109122662625604452 -0.001387421496221722576683
204.000000 -0.002235620503330976085316 0.005926540199046067061706 0.007692904173375947687874 0.004646587748061931609500 -0.001613823679523315778386 -0.001408254244454577733606
206.000000 -0.002283807266147735472173 0.006043147522076564720495 0.007859248172962083126003 0.004747123647595489180639 -0.001635459773604827464488 -0.001430090960403176221158
208.000000 -0.002334657487256576631485 0.006166073083364460513667 0.008034711396860148846510 0.004853118434575188350211 -0.001658081676663124021803 -0.001452995424291835067226
210.000000 -0.002388329676513712904184 0.006295732487888903820827 0.008219874927929572000496 0.004964919020593931003882 -0.001681757111474204520116 -0.001477036748337947963047
212.000000 -0.002445002330385178789668 0.006432573720783317169913 0.008415369440846717438709 0.005082903158079074730502 -0.001706554825859117737949 -0.001502287036565587733869
214.000000 -0.002504867398482706064566 0.006577073224848658042352 0.008621874834341278215355 0.005207478467098267810309 -0.001732547220462039979857 -0.001528823110435027126178
216.000000 -0.002568135408805562788087 0.006729746898503401013325 0.008840127128277315560201 0.005339084858385711486461 -0.001759812194087653205651 -0.001556728487500006353345
218.000000 -0.002635031659362670284491 0.006891151920201581473902 0.009070918449893057566857 0.005478196323752694205100 -0.001788431286007630821588 -0.001586091480107582572801
220.000000 -0.002705808678453026916433 0.007061872987169269359764 0.009315096341975862698215 0.005625321248082112111921 -0.001818491190942105647371 -0.001617006220882443237596
222.000000 -0.002780733854392281826501 0.007242543904244236503687 0.009573573924614732152949 0.005781006878246792990428 -0.001850085219378027256640 -0.001649574544353458582097
224.000000 -0.002860094552276554440845 0.007433837720255461606333 0.009847327153714592606892 0.005945840406818221450524 -0.001883311592887049060532 -0.001683904202801420578461
226.000000 -0.002944202006377012563465 0.007636468493522873164647 0.010137395245407659905013 0.006120447207779361638302 -0.001918276905416399849558 -0.001720111673106746418005
228.000000 -0.003033389497245364292005 0.007851196080349166078749 0.010444885969588365431937 0.006305495730197274543982 -0.001955094274324054460373 -0.001758320511334007969773
230.000000 -0.003128014475198893831059 0.008078819064409532499371 0.010770973000273135339322 0.006501696650250242924540 -0.001993884168560457713359 -0.001798662466159625791459
232.000000 -0.003228458077778507614997 0.008320185614038374741219 0.011116901062317526352463 0.006709805142707107525335 -0.002034776009500874772301 -0.001841278379380495997322
234.000000 -0.003335130333449059115286 0.008576181648221955708400 0.011483981866238092417465 0.006930619892980901738944 -0.002077907576677447045593 -0.001886317771729065836256
236.000000 -0.003448466502563731807263 0.008847750668536909571249 0.011873604636560890213115 0.007164987469164649236397 -0.002123427211587768786982 -0.001933940687559979748622
238.000000 -0.003568933910956187047225 0.009135883234802341656966 0.012287236999707174672780 0.007413804588178095171525 -0.002171491732669397593802 -0.001984315961737205015469
240.000000 -0.003697037419099889581087 0.009441639930185458107204 0.012726440245968067416227 0.007678023032177449039293 -0.002222270343576596141055 -0.002037624534572923720027
242.000000 -0.003833316221707704953003 0.009766165899443528600199 0.013192882895891735323124 0.007958656081812552976484 -0.002275944681996533262847 -0.002094059715092137091697
244.000000 -0.003978362194417859459827 0.010110720052902893995039 0.013688378886498615144562 0.008256797468920166332973 -0.002332710028326148276462 -0.002153828897918872928297
246.000000 -0.004132826729737917696716 0.010476708911850282288092 0.014214925855671814436398 0.008573637748987715870297 -0.002392778769276260233262 -0.002217156830414609546692
248.000000 -0.004297427364831941931644 0.010865755356470966838667 0.014774771095963657938088 0.008910496495701641581078 -0.002456382021487579954411 -0.002284288690321073511669
250.000000 -0.004472975582592653501224 0.011279750790086404133028 0.015370490975138468778272 0.009268861537199423600297 -0.002523774273133210822861 -0.002355495640554015196466
252.000000 -0.004660387062296944722661 0.011720937813164184274073 0.016005082803172556576987 0.009650435569691556692007 -0.002595237050201705010510 -0.002431079800974222764054
254.000000 -0.004860705403002494977283 0.012191979301865643950387 0.016682064046874375828899 0.010057190319944096096316 -0.002671084560403897550929 -0.002511382154470805441737
256.000000 -0.005075117112364128067747 0.012696017857349275320678 0.017405561186338951162877 0.010491416470546046507684 -0.002751668597836601053153 -0.002596788642423478610938
258.000000 -0.005304963562357600803665 0.013236692165042928531760 0.018180365702380272413530 0.010955763768883903033768 -0.002837384760776408103300 -0.002687737920756594171834
260.000000 -0.005551746092255781771241 0.013818112472059851728035 0.019011942718517270412004 0.011453261724634615503771 -0.002928675194984944798321 -0.002784725085227863008996
262.000000 -0.005817107722592095714331 0.014444742438919402557906 0.019906344361796356190464 0.011987297091424592779263 -0.003026032431206259181583 -0.002888304077070888258028
264.000000 -0.006102812762045634054076 0.015121185853071622551269 0.020870022223297406832598 0.012561547705105724839769 -0.003129996469193348576643 -0.002999083021239805531277
266.000000 -0.006410697829005601068586 0.015851863531153718989142 0.021909505316626429194393 0.013179848160789705419083 -0.003241150294247173001966 -0.003117714028688203884571
268.000000 -0.006742621192067292483496 0.016640627246164968466857 0.023030973340716191094524 0.013845999990420918349110 -0.003360107969571169209133 -0.003244874608102671972171
270.000000 -0.007100393819904806357035 0.017490328164776459268781 0.024239752627974158610824 0.014563533454170992514909 -0.003487499118242965139708 -0.003381242790847911478674
272.000000 -0.007485730116966115947619 0.018402441369698152584533 0.025539831065507771767908 0.015335464633908651305161 -0.003623948867431345602363 -0.003527468225061670004800
274.000000 -0.007900210990134397606721 0.019376869821880644828571 0.026933519337482985517296 0.016164106222944570057098 -0.003770053182455027854930 -0.003684141261673046230385
276.000000 -0.008345282387459709155797 0.020412048566760737644543 0.028421399172764302831773 0.017050998238169631088246 -0.003926356291704603818093 -0.003851769092465001480263
278.000000 -0.008822308036646572121375 0.021505365216114687154647 0.030002644891394654458328 0.017997014342839897510506 -0.004093334943199765374455 -0.004030765944785345833434
280.000000 -0.009332672068550287164390 0.022653935128875903048939 0.031675729476552838548287 0.019002638843402797769189 -0.004271400977138944260458 -0.004221465165106767433723
282.000000 -0.009877941625692087876387 0.023855583659411021962837 0.033439435519618219971871 0.020068389820572150872291 -0.004460927209151465192005 -0.004424156906067039374264
284.000000 -0.010460074429602145285045 0.025109987907703322507214 0.035294084079069018566877 0.021195336634480779064438 -0.004662307243965800769570 -0.004639157035035298970449
286.000000 -0.011081649066111009735436 0.026419876347232806867993 0.037242877207108539272529 0.022385668884817914309204 -0.004876042642031137158698 -0.004866900374152697064667
288.000000 -0.011746098100666901853373 0.027792270137753590647511 0.039293324197876920711447 0.023643314530598071032674 -0.005102847681739532646750 -0.005108051436742504745891
290.000000 -0.012457869787410381576254 0.029239731705089245378248 0.041458730799692242174892 0.024974634403070794519408 -0.005343747902496916862836 -0.005363615923217292941194
292.000000 -0.013222397746709949398203 0.030781446534063311437635 0.043759668500859279227644 0.026389236895537480920293 -0.005600120221346455151590 -0.005635017385035192075127
294.000000 -0.014045555333757555813157 0.032443370187939434001745 0.046224861311774126382268 0.027900806176893541699080 -0.005873593499180188373665 -0.005924076185290456063315
296.000000 -0.014932234030238460131823 0.034255204659843149772591 0.048889716714611196335394 0.029527297069503646853583 -0.006165739759176542753027 -0.006232808206870438585967
298.000000 -0.015884230610716622289491 0.036239281140111628820577 0.051788079191400965273218 0.031288350996734548559175 -0.006477717557443180181054 -0.006563049626711960592151
300.000000 -0.016898780299114735115040 0.038386319823305939391567 0.054931187531839155424596 0.033196243092685616404847 -0.006810334382442296934090 -0.006916036544075687686473
302.000000 -0.017968147417395219367364 0.040624401337455637306384 0.058274313431824209530419 0.035238939947406865138557 -0.007164601577907787205435 -0.007291897296912502705879
304.000000 -0.019078127729917175592345 0.042806292673718500385593 0.061688916665915013992638 0.037362803826214055491484 -0.007541741950011350212324 -0.007688726132457950751542
306.000000 -0.020204983414943981229195 0.044743804531656349021684 0.064974288396809659618114 0.039473217589591443055230 -0.007941516106698869384428 -0.008101443031379823925264
308.000000 -0.021316324670033633820188 0.046281125989687747768198 0.067923401549384795905517 0.041465040255688860593164 -0.008359490063813883667376 -0.008521420192348975325425
310.000000 -0.022380034023880873012002 0.047348272468761248843450 0.070396754992560497954379 0.043262091695751792030933 -0.008786129636137691295561 -0.008937661464387300705448
312.000000 -0.023374488068774994936616 0.047954106731493188753301 0.072344022107611372085501 0.044831532146503823288430 -0.009209713677403997059145 -0.009339333348780972862690
314.000000 -0.024290534909494995718937 0.048145872097891749541443 0.073775924339699788800928 0.046170177512204174652410 -0.009620885607736539071877 -0.009718321588749669059926
316.000000 -0.025125214905844031609838 0.047977708133290129788318 0.074726699365759097215545 0.047283321567477075431096 -0.010015470581583552425742 -0.010070494371517010878669
318.000000 -0.025873783572369416644543 0.047500078928266659117341 0.075230561026627035259295 0.048170015653204147076938 -0.010395028435952934076081 -0.010395703211141317165445
320.000000 -0.026524474879759965539883 0.046761735924167366351689 0.075313447547018103067629 0.048817521789648418706342 -0.010766183009256281855048 -0.010697134128923393298072
322.000000 -0.027057915585418042259125 0.045813056393403703281386 0.074994091616400443411905 0.049203633128912578620362 -0.011138981199743637484634 -0.010980029640438209934117
324.000000 -0.027451819978024760704471 0.044704362313940142203972 0.074288677482939435847697 0.049304003299443122099177 -0.011524272941354661223268 -0.011249890924036325123847
326.000000 -0.027688228099475433591214 0.043480879702253089069686 0.073214772182707582581784 0.049099866471174265225574 -0.011930812745026331267439 -0.011510768132777503616748
328.000000 -0.027757298077997708679598 0.042180158810726370299804 0.071791863031798505700998 0.048581050117026541856902 -0.012363523509725493979006 -0.011764343711586706248129
330.000000 -0.027653041587245411753182 0.040835178774870396767316 0.070038868467347317747773 0.047742576448462165084052 -0.012823992575914188937758 -0.012010235765404948804491
332.000000 -0.027364777912887633393169 0.039479531697841359350054 0.067971687741787703562757 0.046579332978193388470345 -0.013312184898432336682683 -0.012246917502126893409486
334.000000 -0.026873647180678895962647 0.038149313295578329841007 0.065604323199860634097114 0.045085800706885295618953 -0.013826804643452140358706 -0.012471737935524012524935
336.000000 -0.026157507009027584216065 0.036881557604629383595451 0.062953768970878024036075 0.043261851164729074603610 -0.014363986905096404536608 -0.012680140756705659405013
338.000000 -0.025200067719940828780967 0.035708755482499458799861 0.060042816356067896244042 0.041118186712854283559881 -0.014917207012155981118995 -0.012866454631728472743357
340.000000 -0.023997199239091861200368 0.034651378860058937303457 0.056898585515168360882132 0.038677797185052591177890 -0.015480088835909722871920 -0.013027611255759284983324
342.000000 -0.022557843029379933547096 0.033715199296808433249151 0.053550540214927180859839 0.035974819527765024285149 -0.016049780813795447298453 -0.013167367389224140031279
344.000000 -0.020904682550658658379827 0.032895192850214097224359 0.050030541246884267791994 0.033053141943856806372892 -0.016626591871995683585839 -0.013296322950020275296956
346.000000 -0.019078589454277893044942 0.032179205303796559745066 0.046373603247790523562699 0.029965994362104078629905 -0.017207974137918705115347 -0.013425144726562976416062
348.000000 -0.017139300564839986956711 0.031551775627327818818380 0.042618498240597733894841 0.026774001550976801039328 -0.017781555648295574445505 -0.013555254946034227606089
350.000000 -0.015154877845041271958171 0.030997375942434835655037 0.038805276287687991143560 0.023537415189756171612911 -0.018324910623608917786820 -0.013675512126135502127822
352.000000 -0.013189447832968654097940 0.030493226538536130632018 0.034966160069704058099838 0.020304445003648311646183 -0.018813184023564164665254 -0.013767980000646299829081
354.000000 -0.011299796227010190999285 0.029995611577255786722729 0.031116246575992628775609 0.017104589975038591437295 -0.019227115501715873191468 -0.013816306975605874285407
356.000000 -0.009534893014231621971577 0.029438901839373393665156 0.027254830119206967936618 0.013952265227615272269457 -0.019555193933106923553922 -0.013809552257840149516732
358.000000 -0.007933502252817274322250 0.028750738681136252944404 0.023376302523360700108546 0.010856369134578335716723 -0.019790939500142948337391 -0.013741009490128332226622
360.000000 -0.006522876966184107047630 0.027870683927586039491109 0.019483331465806410370822 0.007830153685887280418099 -0.019929117288139869268448 -0.013605412023950168992625
362.000000 -0.005318626257855474728786 0.026763109696383992341939 0.015597639390887131638497 0.004898767547661497800959 -0.019963675239583356796347 -0.013397772917980940027283
364.000000 -0.004324902100263994415841 0.025419846447467576294743 0.011763277073955200405231 0.002101089210564502894607 -0.019888153392777448147388 -0.013114482525589631067842
366.000000 -0.003537415866801059665531 0.023848557659750573012314 0.008037218566198800137612 -0.000517070563631474833764 -0.019696604915032542293396 -0.012753944058629788221859
368.000000 -0.002947674807415845942005 0.022058671401205501294562 0.004475321203888305530982 -0.002912781887467148951576 -0.019382956351844896764058 -0.012315087668640636517359
370.000000 -0.002545314676717396872724 0.020062617811827151981241 0.001129989980228425635808 -0.005047675098755411565721 -0.018938507241996010294072 -0.011795014250088477203438
372.000000 -0.002320290344513304629098 0.017887533251279348622820 -0.001941425673508036329334 -0.006882191418771975606472 -0.018349606443315558818030 -0.011187755182589286320760
374.000000 -0.002261339738342067404164 0.015581417908276174941196 -0.004674543513637695497931 -0.008375398397603510056153 -0.017600284218833053134778 -0.010486724422991129321292
376.000000 -0.002345938750217455535940 0.013208247502631668274242 -0.007011051373774937998939 -0.009497485124668195860531 -0.016682228181884199008644 -0.009691645550207019302325
378.000000 -0.002532231019734164194357 0.010836278642865694241126 -0.008916563322050667997343 -0.010244618682556471886413 -0.015604985188066567564080 -0.008814794186766079092665
380.000000 -0.002763598836994962410635 0.008527328830467603357213 -0.010386985576202883638230 -0.010641198858856473069556 -0.014396943922640063895368 -0.007880703323084149031219
382.000000 -0.002978916654881318733933 0.006333204978453015054907 -0.011441502905570461595675 -0.010729943132555201656952 -0.013098165968435996481256 -0.006920696867048131695199
384.000000 -0.003119736662853616303293 0.004297619926319064774523 -0.012111905450008023099606 -0.010560317465225659699923 -0.011752272290206609850483 -0.005967080652323872476395
386.000000 -0.003136311614386456340237 0.002457505610599977283193 -0.012436424599012367228634 -0.010182478764975078089350 -0.010402114175330341022674 -0.005049924302320263347355
388.000000 -0.002994530976121478373086 0.000842045911722605648284 -0.012458263663151177003119 -0.009646478323067217072739 -0.009089224846523398168574 -0.004196319642439548178170
390.000000 -0.002680844909630207464207 -0.000529796348826992919735 -0.012226248647964623253448 -0.009002840201586899751551 -0.007852954086924344989651 -0.003429455131901476376555
392.000000 -0.002204398471472788969411 -0.001651044431309250416773 -0.011792568425526232106515 -0.008299115188278288063328 -0.006725015402997096616855 -0.002765154854157041239976
394.000000 -0.001599773953873339553747 -0.002526130336929314004757 -0.011206335735438372955275 -0.007572712173453019848801 -0.005721924373879045538915 -0.002207773311028870741324
396.000000 -0.000926987879491050510011 -0.003168317436582066427136 -0.010507658451074118610702 -0.006846737507434779400339 -0.004843217721312254205046 -0.001750177894107532699380
398.000000 -0.000261678089404484518366 -0.003595636615224928871876 -0.009725948427064355986116 -0.006132247252632189865595 -0.004077453217965705360715 -0.001378532504891548946327
400.000000 0.000323345124393161300648 -0.003826973900924706805532 -0.008881904363704487895270 -0.005433621789366209139938 -0.003409898835466741110617 -0.001077744604863233555958
402.000000 0.000776919056660347034232 -0.003879282125470815984630 -0.007990474351966134203273 -0.004752777647448799130947 -0.002826886438879154181403 -0.000834448038790889341440
404.000000 0.001079935226855623878889 -0.003766262052275797661549 -0.007063767522327534832682 -0.004091436308249883462007 -0.002316977479506088927197 -0.000637733687345289654118
406.000000 0.001242111769621553505824 -0.003499826946350640365091 -0.006113518647847641929172 -0.003452178787386103123863 -0.001870890087646742997937 -0.000478910393597932546993
408.000000 0.001289569960693782296746 -0.003096373709475618799664 -0.005154003010699521013238 -0.002839244788795015298627 -0.001481336888774443345460 -0.000351072895915712673062
410.000000 0.001251884224367566826250 -0.002587503322211552256316 -0.004206174392801708718237 -0.002259900437901446890870 -0.001143100673144606437351 -0.000248704080147530088088
412.000000 0.001154579263308153471226 -0.002026660375928821498925 -0.003300298308740757472629 -0.001725305753588836409421 -0.000853065027726354380318 -0.000167395118626351233765
414.000000 0.001018826755878520819165 -0.001480052165042482215096 -0.002473091060625608444273 -0.001249498913482983628032 -0.000609839237021645949079 -0.000103756634350254806748
416.000000 0.000864372597512318889892 -0.001003309045097177699957 -0.001758345809748925380953 -0.000845863257170506653397 -0.000412830342668847279954 -0.000055457472054254376877
418.000000 0.000709938170047228703924 -0.000624087863509507336998 -0.001177349118005604697301 -0.000523003849252935519576 -0.000260854581275127837044 -0.000020933369812817932654
420.000000 0.000570029879021485808531 -0.000343382778615984336074 -0.000734136834391376337863 -0.000281651825706511686580 -0.000150708135360777160331 0.000001325193172492283732
422.000000 0.000451768403393222920620 -0.000147371770883809297039 -0.000416326037493301931783 -0.000113938233783145273547 -0.000076483303030096193536 0.000013391856025954000176
424.000000 0.000355317376764579509387 -0.000018050086072820618720 -0.000200950929289873275480 -0.000005933000874537706874 -0.000030397806387410588344 0.000017868186486919340527
426.000000 0.000277420821048116441124 0.000061406384933707252086 -0.000062687733524286549979 0.000057651876785240501648 -0.000004665197888998245051 0.000017305930652575336536
428.000000 0.000214403750965475351723 0.000104819032808706977819 0.000020432181449851668500 0.000090051046282198284206 0.000007184887405715406112 0.000013768958343063698562
430.000000 0.000163351216152808842658 0.000123322364983377623327 0.000065468034320786762967 0.000101439195736355552285 0.000009967889628657937881 0.000008708487460185860594
432.000000 0.000122050845680254948546 0.000125531932369961715277 0.000085063058930832444854 0.000099335730519871967320 0.000007191193553506241608 0.000003126962910942121089
434.000000 0.000088625797993968483991 0.000117887834532996369202 0.000088587309324576326360 0.000089384830732565782635 0.000001489577657721129810 -0.000002246967950054475056
436.000000 0.000061550164825873956336 0.000105043761687720034817 0.000082907028956083283306 0.000075832187385620287230 -0.000005147566357722988674 -0.000006894338206526966404
438.000000 0.000039869310385987102017 0.000090495583024784951318 0.000073083750805237051467 0.000061821503839030016452 -0.000011322887708296008717 -0.000010520576642811065691
440.000000 0.000023192793820651675941 0.000076760206616756110906 0.000062521688375151510944 0.000049309288975997582233 -0.000016298823653194610748 -0.000013100013555378904181
442.000000 0.000010993989480443323558 0.000065102282779558139211 0.000052991466552510127855 0.000039099372260306632012 -0.000019884894677015630342 -0.000014768142815580869034
444.000000 0.000002500183484605799682 0.000055764744905652375944 0.000045090660895816009768 0.000031178534778163238806 -0.000022234317286664827804 -0.000015729562548227880891
446.000000 -0.000003223770557156285814 0.000048462065645493636757 0.000038761638008360122659 0.000025187324674598649595 -0.000023598117639753688634 -0.000016169483957428653812
448.000000 -0.000006962986155730200784 0.000042810320994295310868 0.000033782613765236635362 0.000020703075009595849895 -0.000024227204206477899489 -0.000016239608987957591084
450.000000 -0.000009310218325123942635 0.000038397772886172473175 0.000029870326406522745095 0.000017366552312882335273 -0.000024313733312923468738 -0.000016045105276475315071
452.000000 -0.000010687139305720836356 0.000034941031945313368165 0.000026822049588802372190 0.000014910511161674095868 -0.000024013064919798729214 -0.000015672248428392046208
454.000000 -0.000011386059828405583615 0.000032146208257749702504 0.000024379790344863686930 0.000013070914930072109002 -0.000023455049136474957045 -0.000015186782847297281614
456.000000 -0.000011635720059928252672 0.000029859826547888932937 0.000022423367753807273774 0.000011700485927760623220 -0.000022726904861593733454 -0.000014632841639168367133
458.000000 -0.000011589925733832596807 0.000027933153981488433395 0.000020781025574931918758 0.000010625438812353779110 -0.000021906348739515550515 -0.000014046868736651145796
460.000000 -0.000011338176631299651207 0.000026278678645675539269 0.000019375044794250452041 0.000009757382171144878818 -0.000021033310472156993050 -0.000013443262697551137442
462.000000 -0.000011028440779506378273 0.000024747435227183345785 0.000018146272092661710817 0.000009044880768355867458 -0.000020140206652883834712 -0.000012838601365163515442
464.000000 -0.000010643104765386070026 0.000023407519953398229779 0.000017059292972257081067 0.000008442088082399811194 -0.000019251622763258797501 -0.000012247330459436317777
466.000000 -0.000010225278759465481753 0.000022195625543891113972 0.000016084597234971208870 0.000007920369944944109526 -0.000018371437340146672557 -0.000011666655308870772442
468.000000 -0.000009777306751160918472 0.000021014175780368074070 0.000015164499086826614053 0.000007439788592769512093 -0.000017517643256329345044 -0.000011106776445731081026
470.000000 -0.000009352912425867673790 0.000019907755938244032991 0.000014335499064417288453 0.000007022861754815909666 -0.000016687116215532421114 -0.000010566399714135087126
472.000000 -0.000008877195816513697919 0.000018911874366727529000 0.000013570852697224917519 0.000006640618750736654430 -0.000015893783008006084624 -0.000010056388841954779395
474.000000 -0.000008435626833237555895 0.000017946248810056891857 0.000012832610760567141742 0.000006266151599846180522 -0.000015136744540288848035 -0.000009569162379970664830
476.000000 -0.000008009468545651119166 0.000017011200002990894373 0.000012148200768348068956 0.000005930464883119933088 -0.000014409102194832596909 -0.000009101604304489024065
478.000000 -0.000007606364687247350608 0.000016148230935048744965 0.000011518359756380446368 0.000005617598860422018818 -0.000013714037951632036959 -0.000008655208904394926417
480.000000 -0.000007195272945835933392 0.000015329991399511345751 0.000010918826614301387610 0.000005324037393327117970 -0.000013060615173709995540 -0.000008241430435975866616
482.000000 -0.000006824104340626651585 0.000014538013083674965510 0.000010367058239547849099 0.000005056837169061455692 -0.000012433774727581135521 -0.000007845005520072672009
484.000000 -0.000006449729774378129125 0.000013852808375700913994 0.000009854923121960332700 0.000004799967655144980572 -0.000011836879692490875644 -0.000007466086493015645120
486.000000 -0.000006148636896227343533 0.000013163907926009857377 0.000009362199693610042832 0.000004568893286975851406 -0.000011265731966769507093 -0.000007107443830532044991
488.000000 -0.000005845685019824001877 0.000012478238725229671283 0.000008896536746873539536 0.000004345335343127987227 -0.000010719101218810016306 -0.000006763388675609647741
490.000000 -0.000005553400283631189813 0.000011917721977371492390 0.000008477978914931105556 0.000004141085882323325469 -0.000010198841844338508501 -0.000006436069339196133805
492.000000 -0.000005273142425254355117 0.000011399835939358840138 0.000008086068962924101330 0.000003946783625915248166 -0.000009699824736250245528 -0.000006119543375373939560
494.000000 -0.000005056871480489228138 0.000010879369768673952771 0.000007728370020806441088 0.000003767336918464084906 -0.000009228597262748759820 -0.000005823492291173033911
496.000000 -0.000004800507945326597641 0.000010400568672753386537 0.000007387624864193688260 0.000003604282169249701460 -0.000008780566787627401706 -0.000005544465848800403588
498.000000 -0.000004569522523816357336 0.000009870748115542012511 0.000007035278556866201236 0.000003437779256120736147 -0.000008350818313112536365 -0.000005273492496764159544
500.000000 -0.000004331944608975009472 0.000009405899440747312286 0.000006689540099757751387 0.000003266870221448807485 -0.000007945343634772908745 -0.000005017767026452323300
502.000000 -0.000004118106123362465607 0.000008908053127314611970 0.000006367623524499724052 0.000003119902026400313616 -0.000007552473020522001915 -0.000004768641105694717678
504.000000 -0.000003950907144417479057 0.000008462187257554649769 0.000006096544734937972790 0.000002997861117417270460 -0.000007176041160078731507 -0.000004532685606131814752
506.000000 -0.000003777561993737015367 0.000008089125949670604649 0.000005824650685777067230 0.000002867502042006792851 -0.000006824839894104023639 -0.000004309423924011816690
508.000000 -0.000003623397777634538840 0.000007692684647251085079 0.000005538698819246696720 0.000002721613703086922695 -0.000006496924081082390901 -0.000004101333371871163273
510.000000 -0.000003429159374837900174 0.000007310084791939650174 0.000005265558591018994145 0.000002588476307192998150 -0.000006182261645864137689 -0.000003902508512614889034
512.000000 -0.000003200992557770752902 0.000006963274856482067787 0.000004993513769918483563 0.000002451725200456490728 -0.000005893179862421906869 -0.000003722013914725429481
514.000000 -0.000003044011145511265781 0.000006683178209595577520 0.000004767022731013429529 0.000002340858472708383422 -0.000005608664494768186390 -0.000003544553934773917370
516.000000 -0.000002924786618994683377 0.000006387992788194129963 0.000004579675993656604708 0.000002258526849008205148 -0.000005324934612880558748 -0.000003364555600802210320
518.000000 -0.000002843867478218141448 0.000006015270726257147910 0.000004364727173339171584 0.000002159588235167725898 -0.000005059537389945383219 -0.000003195165506993008852
520.000000 -0.000002743692072471040235 0.000005747760044237495075 0.000004172461407068494204 0.000002063511782331726040 -0.000004816525238524641866 -0.000003042418975127652302
522.000000 -0.000002588681976334197416 0.000005487588454605640022 0.000003973427991532094600 0.000001962307056120741597 -0.000004588005483245861093 -0.000002901091666431280061
524.000000 -0.000002433316139953293499 0.000005230179708701515227 0.000003803170579685862447 0.000001880317650933167612 -0.000004369873059471646658 -0.000002766346948564010585
526.000000 -0.000002288747329719502240 0.000004989666330569667244 0.000003638749014715124631 0.000001809717365091700004 -0.000004152242738522608796 -0.000002628261509929735893
528.000000 -0.000002153776387100689377 0.000004765122088185752624 0.000003481613050285834609 0.000001743754197686647588 -0.000003948633311962656341 -0.000002501743075936459501
530.000000 -0.000002057160343476385523 0.000004547418738802865969 0.000003337392274836756048 0.000001678944256064793313 -0.000003758427197026415744 -0.000002384050906248550563
532.000000 -0.000001975039444810381491 0.000004350812161548043324 0.000003192225148647318533 0.000001605736426576473825 -0.000003581639764981242750 -0.000002274145618392926783
534.000000 -0.000001862590262899224578 0.000004163811378532029265 0.000003058962962646358098 0.000001543491768526291342 -0.000003407438927783000270 -0.000002164400168057309567
536.000000 -0.000001774796183283158622 0.000003965447596188389065 0.000002939461328837470671 0.000001487630141517693325 -0.000003243419827088477432 -0.000002062439978064649271
538.000000 -0.000001777672754840945103 0.000003741452560788204343 0.000002818725043973908431 0.000001436036084410962091 -0.000003079407942557716049 -0.000001955869348234899992
540.000000 -0.000001703173344823306844 0.000003513396041418621933 0.000002671061472855945570 0.000001362835416002878682 -0.000002937632609994467147 -0.000001866171631483471505
542.000000 -0.000001616156810017739738 0.000003301146629213119515 0.000002539566557496271019 0.000001294167926743161027 -0.000002802982615804194077 -0.000001782087285281147801
544.000000 -0.000001549970581180010269 0.000003131812831158175657 0.000002427757342872079628 0.000001235359328650249528 -0.000002669910312900084504 -0.000001696905499287080586
546.000000 -0.000001477453605191024762 0.000003021793719826934337 0.000002331991084872505055 0.000001190160597095201163 -0.000002540278065976063172 -0.000001614668964506659368
548.000000 -0.000001375446523690521466 0.000002936614138910584782 0.000002225051371558932034 0.000001131190848027378340 -0.000002421809802768615089 -0.000001539831402130796970
550.000000 -0.000001308946561956765110 0.000002847330255279563216 0.000002139688358563015961 0.000001085954208830029791 -0.000002307487048276323704 -0.000001467846088349524177
552.000000 -0.000001286761046995386161 0.000002639021175983059560 0.000002016817196924293810 0.000001027706756326108393 -0.000002197663012351113176 -0.000001396810333639692850
554.000000 -0.000001250314570417245715 0.000002492979866829253848 0.000001926853170459474594 0.000000986725616029559730 -0.000002089612643909206953 -0.000001328704360785564845
556.000000 -0.000001134445683714721856 0.000002403833104927715359 0.000001819805811176723829 0.000000924506864514176969 -0.000002000295581749482805 -0.000001272647136135469782
558.000000 -0.000001082644816185856775 0.000002262151308138928329 0.000001720490327875730891 0.000000872434519060580821 -0.000001908784367249152606 -0.000001216043641813161054
560.000000 -0.000001062896035622102645 0.000002176196334672253265 0.000001666205430307652565 0.000000846793873117205955 -0.000001817595170923788981 -0.000001159963395608295440
562.000000 -0.000001039044038759155187 0.000002088395618057196084 0.000001606316474738091614 0.000000817770456466905746 -0.000001730536588276655725 -0.000001106616014034424040
564.000000 -0.000000972233954167185366 0.000001999097689263381965 0.000001547226387824861107 0.000000788584746568473664 -0.000001649621030241851731 -0.000001055121096433145484
565.560000 -0.000000914292326150648181 0.000001899689013619697410 0.000001460722408522080212 0.000000741465247912447236 -0.000001589639235481015098 -0.000001013822642350830787
