0.000000 -0.000000000000000000000000 -0.000000000000000000000000 -0.000000000000000000000000 -0.000000000000000000000000 -0.000000000000000000000000 -0.000000000000000000000000
2.000000 0.000236316866505657162617 -0.002518942272246054402129 -0.004322234085402691314282 -0.002099175227743394888530 -0.000384890837505249216142 -0.000039277689928694494098
4.000000 0.001060119598433687578692 -0.001629828199854917170075 -0.007460600068894453901214 -0.003536402087306386200771 -0.000399281366329708024311 0.000127882358765547468745
6.000000 0.000932637208779102020416 -0.001566112217288961059106 -0.009898275752863413753935 -0.004336572134845368721445 -0.000276662364828082459403 0.000308803387214479465369
8.000000 0.001173687502807337079691 -0.001269547546279234731537 -0.012164788737861234949045 -0.004861895528765945717620 -0.000088185305372722792264 0.000501233688602585993402
10.000000 0.002180899790545797259367 -0.000319292679978199715057 -0.015090773672909292557609 -0.005554307061915368312621 0.000157796732742641795380 0.000731857537761204852457
12.000000 0.003187497278927773312895 -0.000216125453648144177574 -0.020704250295429139916425 -0.007067704476160327486944 0.000352853089457517271870 0.000996650437755313518481
14.000000 0.004912404001671296337184 0.000717425309025774313003 -0.027857344459336911418612 -0.009355411358315824169041 0.000546505130490107841022 0.001322530871195722913802
16.000000 0.007065681999768089367742 0.001985787126605765944010 -0.038219797367589410097555 -0.012848088885510162288073 0.000766931239120358272665 0.001776542606032122800785
18.000000 0.009798694873185609041655 0.003604072932568169219947 -0.051457667146019736570395 -0.017430457721331137077581 0.001114386865527242521240 0.002426377227747132745567
20.000000 0.011912003991810452344091 0.005208467159892843367786 -0.062804907211722049709124 -0.021314175623995363501040 0.001803194182577114819052 0.003330936643363659709072
22.000000 0.014281968335113515849999 0.007310563256982127375294 -0.073937305018133961387328 -0.025099130190691754799248 0.002535618746806407412808 0.004247006069750420935438
24.000000 0.016702713811551257727661 0.010173673105414183723272 -0.082903048914918897605020 -0.028301082225616124715684 0.003353899088041604852062 0.005193337686347581326485
26.000000 0.018754484922447529904321 0.013372582320642093650642 -0.090645183830915590506017 -0.031360111622286815369343 0.004429653324958983742765 0.006477713755686257887656
28.000000 0.020237972517700555941111 0.016721959211389077898380 -0.096071135965949391866125 -0.033986722166434384095890 0.005197186830386082284639 0.007465485371902426392499
30.000000 0.021665886060496849369050 0.020353017491632551666525 -0.100573569608275029119149 -0.036578799563586048004815 0.005939764568723059252886 0.008462318061367197705169
32.000000 0.022958190853636258749182 0.023810518514683121776843 -0.104613330374391605426254 -0.039155606333637620053434 0.006450184933900574360544 0.009180718382131343099917
34.000000 0.024737210901039669019852 0.027921296789146111266833 -0.108611516242033551149504 -0.042228356163335131756575 0.006843560245058437352395 0.009903933672492174974944
36.000000 0.026465052528635922557410 0.032477973860072735512450 -0.111519158148261049445793 -0.045126073139647920884343 0.007151117344597998810862 0.010440342798421714184953
38.000000 0.029151298259735416301686 0.037179520414557000462796 -0.116130260899816664665885 -0.049454282543199439003967 0.006829642104496048450601 0.010517575173899861018523
40.000000 0.031931311189726876986761 0.043321815962094542551419 -0.119083261729417036467460 -0.053568689065061840526294 0.006469939788519738291250 0.010597157935610477391686
42.000000 0.034187880153504018876376 0.048348696403651747477426 -0.122571398416442323142661 -0.057579796896836545061493 0.006348815453494058985706 0.010922083221283301543436
44.000000 0.036902380087744532377592 0.055033094027585972851657 -0.124239606073410807640656 -0.061193561762181755692147 0.006085310709079007340794 0.011036934228539449498463
46.000000 0.039317736826981058984032 0.060492018297665040016398 -0.125982681914120875354968 -0.063834152919459083430631 0.006334016148935322013114 0.011472367599432717680252
48.000000 0.040449758610427502536488 0.066136457434015333278765 -0.125997110638021131423514 -0.065363761609242995720415 0.006949674499792382262320 0.012081435706823753784001
50.000000 0.043373793672109105246104 0.072824086314172239986497 -0.127100283679902809064188 -0.067679116358500365779882 0.007194209552785368715078 0.012384358656998467607124
52.000000 0.045623198459621414069254 0.079787100236246036311094 -0.126511559992390665296824 -0.069201841374694317288174 0.007727860172317927746344 0.012909199012810549170305
54.000000 0.047353547204199458731111 0.086169781931915004347111 -0.126807993957677361818170 -0.070540403650003788427192 0.008520988174184613087037 0.013732470966112818311355
56.000000 0.049450711221430562747337 0.093995792427987737149842 -0.123496815277995886095397 -0.069824230852641194777775 0.009659190416312414886879 0.014555702043483602359242
58.000000 0.051612568617697307526981 0.099381517661201568270002 -0.122104245056300200755750 -0.069739986205848314426703 0.010277931759501564637493 0.014963947035649146841130
60.000000 0.052949377114083553963475 0.104620328609881865777886 -0.118304925978950023490732 -0.068055812736180984479084 0.010888775051663295012627 0.015053157240290718915654
62.000000 0.055028949136344970649581 0.110690761042592442087162 -0.115073172546617738531971 -0.066528463508973720297313 0.010988461812083485241720 0.014457238133450263720126
64.000000 0.053721635181658317081954 0.113277184017096271828606 -0.111679579616953225662535 -0.064163811891471772552720 0.011400128678769020848516 0.014045629758652448601519
66.000000 0.046892565393055675448952 0.108548502471879027009294 -0.109686203932455553222702 -0.060348881788726563280001 0.012407905353079567642438 0.013865376136936960471679
68.000000 0.040727678382291930547776 0.106146668091622473073521 -0.104669136897377626493899 -0.054294075595140434131736 0.014428395675474429971086 0.014429014515036767130063
70.000000 0.035274813654426057096813 0.105395411153669738002492 -0.099127783289921556075797 -0.049089752667237931960109 0.016564872137622550091196 0.015512022815037260214943
72.000000 0.031885160760006379943032 0.103677810787005192372234 -0.093364464945648872884476 -0.043760039897522896856774 0.018918438258207919550058 0.016929224376905516874503
74.000000 0.025210830891811066012398 0.098783475534612336099727 -0.087900231372476850255637 -0.038739334161091973363078 0.021305262017384599126935 0.018489859386869339497039
76.000000 0.019566003956073951125516 0.089446446597644516107728 -0.084919444794872248061246 -0.035296239986655583709130 0.022774521435448051576156 0.019373449329337717739197
78.000000 0.011480823242099966186025 0.077094083356265163953225 -0.079424379698535288452099 -0.029451329387195229053686 0.024868042799857274088859 0.020429900973006499126372
80.000000 0.004560212500985923872454 0.063083441454489283528595 -0.074991629834857867487052 -0.023747670523586499047308 0.027737239488839271484011 0.022665721086528822086903
82.000000 -0.001689595563197579617537 0.051352710179642366283836 -0.068701369366078610112503 -0.017693880886691937259769 0.030105369325901028265680 0.024184571778289341154045
84.000000 -0.005710187584188447865174 0.039354508228273521464047 -0.062609306605976730586427 -0.011701391969256581468417 0.032061667061661601463296 0.025203441800440738035372
86.000000 -0.008838882250584413624583 0.029791333831715612751045 -0.052045028998788323004732 -0.003941754676842578949958 0.033938883917270720735893 0.025877337713467236934850
88.000000 -0.010573821748397283989962 0.020673341395691331723317 -0.041967052343841626527166 0.003720762571732836709176 0.035644486274136882864028 0.026359933475150521681174
90.000000 -0.009418383454089561748757 0.015140722300114758253065 -0.032338776837983217171679 0.009989757266435002683314 0.036609977775997747106995 0.026265996471971541498247
92.000000 -0.009649003127515579439355 0.008883199633393842192808 -0.023745576217872991359181 0.015422926887002986681696 0.037282026279747582098167 0.025979941976173655249216
94.000000 -0.008370930763568611501779 0.006440037414755002062594 -0.012555897328689792288858 0.021675261197966238374546 0.037996566893967749500849 0.025613819924607927891458
96.000000 -0.006256179626734861658199 0.005170685817983453058666 -0.002432346124756775383735 0.027225588233394704823498 0.038398551865047141073983 0.025002490443598111846679
98.000000 -0.004025867520917681199877 0.006404853897636103750302 0.007226836370147334161207 0.031331920723745812495942 0.037834494760273368330061 0.023757845699530440175540
100.000000 -0.001894896394560066556906 0.008740245678801293605087 0.015910372912950995066828 0.033916775887863501171005 0.036138727505846512944032 0.021798417459955175129460
102.000000 0.001159140672847621279101 0.013265796544013674224116 0.022131789104441145638047 0.034614543998290184245725 0.033684160391314055260636 0.019466390420224358864809
104.000000 0.005037278255826029699227 0.018514451562807964640767 0.026684874667802654241155 0.034096777353962499923501 0.030484267901317124022098 0.016688384186123388086553
106.000000 0.009798323130825983134917 0.024156048650274031946994 0.030418970760258994684433 0.032897898758187077428161 0.026767674645802732452671 0.013678740418758574687308
108.000000 0.012806524497926260672265 0.030222923920349482884706 0.032753639864239597612183 0.030951782611312327747610 0.022898933928172892499076 0.010717120089569584506783
110.000000 0.013155540097694326875932 0.033522008322536558933002 0.033338302671178030034405 0.028313257766189772746124 0.019215725026507052969338 0.008179232094214840612101
112.000000 0.013437616834736845067289 0.037269921043775564029055 0.033147909007701509276345 0.025987287102092335860926 0.016354943271995964204635 0.006296850389515964291354
114.000000 0.013058697036344020861454 0.040073468497043671088242 0.032663566793237328034216 0.023974286926223487698140 0.014040019516284156855801 0.004878223966855410945187
116.000000 0.010408534662773716653050 0.040898252458604608672310 0.031987029788271711949754 0.022643039823095685580956 0.012611912608579299230338 0.004130089004214688476468
118.000000 0.004051046833144039856223 0.038870388943989329921802 0.031438978645429264957567 0.021550333409121654598684 0.011362268847076278932562 0.003565731971905726407218
120.000000 -0.001254655218647645264704 0.036071678553709372871960 0.031067421099197536915604 0.020642193971811606534317 0.010304448570115760930310 0.003130237202190649763167
122.000000 -0.005995048744413984664892 0.031463922659956664040770 0.030250630974608158640926 0.019588712979055174917553 0.009264051203121690183928 0.002715503631186610977721
124.000000 -0.009882847487589213955617 0.026697968185907135912904 0.029424883212745618632500 0.018387090319347269146144 0.008121798569022602859446 0.002261221229851108523168
126.000000 -0.010500628056597773041236 0.022531625919937122576320 0.027938874887810050129389 0.016969364730434501747913 0.007046610736372753598655 0.001828374508803439282834
128.000000 -0.009383989716793481039581 0.020203013857867817282266 0.026018579734546992687783 0.015227767341553328714343 0.005824435129653131315575 0.001310577349270320834246
130.000000 -0.008303653340411460553883 0.017163911764658212194545 0.023735368249576723614913 0.013504522525799244128675 0.004745518929346077309506 0.000904714461812828360347
132.000000 -0.007126484672483284106559 0.013788010913339938251498 0.021275804019969583869010 0.011701190113137065890170 0.003655007076092280093871 0.000496535170935251510445
134.000000 -0.006161601111829024396416 0.009102315750727623874794 0.018329097119032113083481 0.009872355477130799472629 0.002658644591433298107197 0.000161119480351447488331
136.000000 -0.005348632559519823567729 0.002965547580609264460838 0.014709289137891410487180 0.007781128404681294553902 0.001619517805770061789905 -0.000151858905779304203826
138.000000 -0.004597263203967050584908 -0.000974369408068567321307 0.011776743948273748693878 0.006034524091163519753100 0.000782869049294480012433 -0.000411017871720288196623
140.000000 -0.003686034928538782680374 -0.002131435350648797858591 0.009478305724476261337474 0.004515913158256742651608 0.000053550950261403602859 -0.000663955924939679462127
142.000000 -0.002830712636461095183665 -0.002372298434403358885492 0.007568443029951379269482 0.003257067136487012438961 -0.000530992519677164027600 -0.000863830528399371893461
144.000000 -0.002268782630263132052417 -0.002629239407630849876402 0.006227694000931195857096 0.002413342386559244427680 -0.000927471006797410207033 -0.000999864187427729200763
146.000000 -0.001998778746607992543721 -0.002941878953466547669954 0.005324390347923335133073 0.001877509081961451810339 -0.001145556271963730880781 -0.001049274752068406896255
148.000000 -0.002004505309252068139675 -0.003010969900664341343532 0.005480927085052834588086 0.001963031765286953229943 -0.001145231523822784654165 -0.001051140738040728895772
150.000000 -0.001979425695063821970948 -0.003090653840964874190383 0.005582607015828367109933 0.002019164533868307142422 -0.001148705549051646243944 -0.001047849751274615871105
152.000000 -0.001932450267497837085098 -0.003165612273648166566375 0.005665487163301414358374 0.002071131460680559598780 -0.001144188411903789264618 -0.001033369258335655295825
154.000000 -0.001896454140805158439936 -0.003266872419408174514632 0.005709402124730353356163 0.002096111142158274629615 -0.001160560647586169301382 -0.001042802572052555724197
156.000000 -0.001890192983649004220340 -0.003398133871433269091039 0.005726667424772926423548 0.002111418207969130954316 -0.001173832121804947292015 -0.001047744965306091112847
158.000000 -0.001941190129064341001602 -0.003580426098875927679033 0.005716975440046572973229 0.002123645469847894057952 -0.001177442545208341696458 -0.001043418532823624147315
160.000000 -0.001856677205092617738771 -0.003616257725815186924168 0.005774878339408480269757 0.002151222410617294016066 -0.001197723876208718141526 -0.001064347674377681294763
162.000000 -0.001778762407852583441598 -0.003646463507404097432324 0.005826587560857176065210 0.002166695746976137360723 -0.001223907456362284323567 -0.001086829877253282046132
164.000000 -0.001733691711648945813634 -0.003696079150522245393429 0.005869225202339445161825 0.002178818438108809981552 -0.001244256356974245310287 -0.001099332555434895082949
166.000000 -0.001722527174365598087724 -0.003769587629112094474826 0.005898571209236802385945 0.002181963617533635210050 -0.001267025243353255047410 -0.001112143091735759078964
168.000000 -0.001732641013720745718982 -0.003855305120348805417163 0.005922151217417915766705 0.002179400201247100321567 -0.001292937190173645573693 -0.001127324271230164924595
170.000000 -0.001744046942062684336233 -0.003933026420234278855426 0.005956814907790737925741 0.002183766866184998906020 -0.001315909212544799124223 -0.001141570694977138943071
172.000000 -0.001757164810465884369900 -0.004004542298661040167218 0.006001538426985359234167 0.002194195510976734361797 -0.001336584896376447062494 -0.001155238488942680885607
174.000000 -0.001772147080229081149427 -0.004071312091266156632519 0.006055424752243089223103 0.002209930099146654568915 -0.001355489627323409451004 -0.001168563283692313197609
176.000000 -0.001789072408506715491927 -0.004134631552885735181202 0.006117664573609410058608 0.002230308594042368537658 -0.001373074392538864863661 -0.001181735949320648513747
178.000000 -0.001807974418803551686780 -0.004195621380607885558822 0.006187556460138609812360 0.002254763803115554868239 -0.001389724774277304548617 -0.001194915891543843261199
180.000000 -0.001828868342904722181855 -0.004255248086434771336017 0.006264537660211260371168 0.002282839492197406578572 -0.001405762025060764948761 -0.001208235302937360738235
182.000000 -0.001851747467650613704696 -0.004314321679286243008122 0.006348182267695024090515 0.002314179072539748055481 -0.001421452440420528737924 -0.001221805169637614138511
184.000000 -0.001876594405426109659837 -0.004373519758232934963316 0.006438194902999880113448 0.002348517521511314220389 -0.001437015241376483724867 -0.001235719396325323394398
186.000000 -0.001903397359386535319867 -0.004433414651028307756908 0.006534399544525832173592 0.002385672690577260012662 -0.001452628513105849337658 -0.001250057619806164239604
188.000000 -0.001932150000755374812458 -0.004494487048158615251359 0.006636726533223842594555 0.002425529332468874098988 -0.001468440246019017984477 -0.001264890056227741498007
190.000000 -0.001962850864888643267342 -0.004557143944202191737647 0.006745195057283020177719 0.002468029014329214086698 -0.001484573611095416339339 -0.001280280015912099288861
192.000000 -0.001995515692088842621410 -0.004621741773941046189933 0.006859907317345035823730 0.002513164073215423330310 -0.001501130772049035855611 -0.001296284242573569932613
194.000000 -0.002030176051426428075752 -0.004688596653576419283349 0.006981033798629064125729 0.002560964259368489134849 -0.001518201916640705886191 -0.001312958308233956724806
196.000000 -0.002066879150731596673923 -0.004758002097976828798087 0.007108805466120344737635 0.002611494826435277211846 -0.001535865861848426149397 -0.001330355506938178363277
198.000000 -0.002105686613543330133053 -0.004830223507290010154236 0.007243514118220026158645 0.002664850737030419192131 -0.001554194262390630985882 -0.001348528977164436051805
200.000000 -0.002146681570248490031338 -0.004905526684233512194067 0.007385499795299103713286 0.002721153229369834350426 -0.001573253670416723589559 -0.001367532252352296256656
202.000000 -0.002189954444722764723141 -0.004984166002295800645960 0.007535150298271799627903 0.002780544482266551157418 -0.001593109122662625604452 -0.001387421496221722576683
204.000000 -0.002235620503330976085316 -0.005066399102907374538129 0.007692904173375947687874 0.002843190676353687246225 -0.001613823679523315778386 -0.001408254244454577733606
206.000000 -0.002283807266147735472173 -0.005152491859374488600287 0.007859248172962083126003 0.002909280643963999078011 -0.001635459773604827464488 -0.001430090960403176221158
208.000000 -0.002334657487256576631485 -0.005242715901508205114667 0.008034711396860148846510 0.002979020844086701334807 -0.001658081676663124021803 -0.001452995424291835067226
210.000000 -0.002388329676513712904184 -0.005337355111301822149783 0.008219874927929572000496 0.003052638495315547571135 -0.001681757111474204520116 -0.001477036748337947963047
212.000000 -0.002445002330385178789668 -0.005436710992594855247628 0.008415369440846717438709 0.003130383512944571837433 -0.001706554825859117737949 -0.001502287036565587733869
214.000000 -0.002504867398482706064566 -0.005541106104542978076644 0.008621874834341278215355 0.003212526509003410437465 -0.001732547220462039979857 -0.001528823110435027126178
216.000000 -0.002568135408805562788087 -0.005650877197232776448510 0.008840127128277315560201 0.003299359999544902981999 -0.001759812194087653205651 -0.001556728487500006353345
218.000000 -0.002635031659362670284491 -0.005766384883907973123163 0.009070918449893057566857 0.003391200236202316850576 -0.001788431286007630821588 -0.001586091480107582572801
220.000000 -0.002705808678453026916433 -0.005888023773893533499568 0.009315096341975862698215 0.003488387097610418791094 -0.001818491190942105647371 -0.001617006220882443237596
222.000000 -0.002780733854392281826501 -0.006016209637077796559823 0.009573573924614732152949 0.003591286670204397145356 -0.001850085219378027256640 -0.001649574544353458582097
224.000000 -0.002860094552276554440845 -0.006151393091467944988782 0.009847327153714592606892 0.003700292919091172083590 -0.001883311592887049060532 -0.001683904202801420578461
226.000000 -0.002944202006377012563465 -0.006294055782664333305310 0.010137395245407659905013 0.003815824978679002634635 -0.001918276905416399849558 -0.001720111673106746418005
228.000000 -0.003033389497245364292005 -0.006444717537506760435262 0.010444885969588365431937 0.003938331554834304144841 -0.001955094274324054460373 -0.001758320511334007969773
230.000000 -0.003128014475198893831059 -0.006603938381993965274497 0.010770973000273135339322 0.004068290304586589037350 -0.001993884168560457713359 -0.001798662466159625791459
232.000000 -0.003228458077778507614997 -0.006772315932901260687737 0.011116901062317526352463 0.004206208850387279166161 -0.002034776009500874772301 -0.001841278379380495997322
234.000000 -0.003335130333449059115286 -0.006950499940470848507512 0.011483981866238092417465 0.004352624285209779654571 -0.002077907576677447045593 -0.001886317771729065836256
236.000000 -0.003448466502563731807263 -0.007139179726610019385835 0.011873604636560890213115 0.004508105626491911398224 -0.002123427211587768786982 -0.001933940687559979748622
238.000000 -0.003568933910956187047225 -0.007339100280575974223629 0.012287236999707174672780 0.004673256241717794849666 -0.002171491732669397593802 -0.001984315961737205015469
240.000000 -0.003697037419099889581087 -0.007551057438415114883568 0.012726440245968067416227 0.004848715534667219322074 -0.002222270343576596141055 -0.002037624534572923720027
242.000000 -0.003833316221707704953003 -0.007775901859378787743526 0.013192882895891735323124 0.005035162752268622539387 -0.002275944681996533262847 -0.002094059715092137091697
244.000000 -0.003978362194417859459827 -0.008014543568667388193094 0.013688378886498615144562 0.005233329917285235721724 -0.002332710028326148276462 -0.002153828897918872928297
246.000000 -0.004132826729737917696716 -0.008267963708115005569410 0.014214925855671814436398 0.005444010573867751924537 -0.002392778769276260233262 -0.002217156830414609546692
248.000000 -0.004297427364831941931644 -0.008537202454472760451698 0.014774771095963657938088 0.005668080966456813703236 -0.002456382021487579954411 -0.002284288690321073511669
250.000000 -0.004472975582592653501224 -0.008823386793706434680362 0.015370490975138468778272 0.005906524669747914048357 -0.002523774273133210822861 -0.002355495640554015196466
252.000000 -0.004660387062296944722661 -0.009127729348281460319825 0.016005082803172556576987 0.006160462532369563593004 -0.002595237050201705010510 -0.002431079800974222764054
254.000000 -0.004860705403002494977283 -0.009451549986132687722340 0.016682064046874375828899 0.006431188449395281413190 -0.002671084560403897550929 -0.002511382154470805441737
256.000000 -0.005075117112364128067747 -0.009796293051009890076597 0.017405561186338951162877 0.006720202044428244710084 -0.002751668597836601053153 -0.002596788642423478610938
258.000000 -0.005304963562357600803665 -0.010163562039831118555266 0.018180365702380272413530 0.007029236310898853874740 -0.002837384760776408103300 -0.002687737920756594171834
260.000000 -0.005551746092255781771241 -0.010555143289162986428020 0.019011942718517270412004 0.007360274576424799368446 -0.002928675194984944798321 -0.002784725085227863008996
262.000000 -0.005817107722592095714331 -0.010973048054178327626040 0.019906344361796356190464 0.007715538827112354385018 -0.003026032431206259181583 -0.002888304077070888258028
264.000000 -0.006102812762045634054076 -0.011419550042006867268674 0.020870022223297406832598 0.008097453301210593909487 -0.003129996469193348576643 -0.002999083021239805531277
266.000000 -0.006410697829005601068586 -0.011897233044813427388364 0.021909505316626429194393 0.008508562903959872997239 -0.003241150294247173001966 -0.003117714028688203884571
268.000000 -0.006742621192067292483496 -0.012409012654906475051075 0.023030973340716191094524 0.008951417119159825810937 -0.003360107969571169209133 -0.003244874608102671972171
270.000000 -0.007100393819904806357035 -0.012958152071987414852283 0.024239752627974158610824 0.009428420694758916920097 -0.003487499118242965139708 -0.003381242790847911478674
272.000000 -0.007485730116966115947619 -0.013548253319146445067256 0.025539831065507771767908 0.009941680284474218101676 -0.003623948867431345602363 -0.003527468225061670004800
274.000000 -0.007900210990134397606721 -0.014183205167235347909926 0.026933519337482985517296 0.010492884437554075502397 -0.003770053182455027854930 -0.003684141261673046230385
276.000000 -0.008345282387459709155797 -0.014867089571633032574205 0.028421399172764302831773 0.011083257385991562501970 -0.003926356291704603818093 -0.003851769092465001480263
278.000000 -0.008822308036646572121375 -0.015604076725641314107862 0.030002644891394654458328 0.011713623442530192442224 -0.004093334943199765374455 -0.004030765944785345833434
280.000000 -0.009332672068550287164390 -0.016398306072341960193395 0.031675729476552838548287 0.012384573029458863582808 -0.004271400977138944260458 -0.004221465165106767433723
282.000000 -0.009877941625692087876387 -0.017253823045394224566795 0.033439435519618219971871 0.013096713549327147416146 -0.004460927209151465192005 -0.004424156906067039374264
284.000000 -0.010460074429602145285045 -0.018174551951225730722639 0.035294084079069018566877 0.013850966998168423929827 -0.004662307243965800769570 -0.004639157035035298970449
286.000000 -0.011081649066111009735436 -0.019164331352853662682190 0.037242877207108539272529 0.014648890221299304750802 -0.004876042642031137158698 -0.004866900374152697064667
288.000000 -0.011746098100666901853373 -0.020226974085174084794225 0.039293324197876920711447 0.015493024650908208614264 -0.005102847681739532646750 -0.005108051436742504745891
290.000000 -0.012457869787410381576254 -0.021366303396610962506141 0.041458730799692242174892 0.016387311081614560487330 -0.005343747902496916862836 -0.005363615923217292941194
292.000000 -0.013222397746709949398203 -0.022586097743870589549253 0.043759668500859279227644 0.017337638092801341965776 -0.005600120221346455151590 -0.005635017385035192075127
294.000000 -0.014045555333757555813157 -0.023889845561145921226665 0.046224861311774126382268 0.018352519235154816923394 -0.005873593499180188373665 -0.005924076185290456063315
296.000000 -0.014932234030238460131823 -0.025280543255154799137108 0.048889716714611196335394 0.019443531247739606615532 -0.006165739759176542753027 -0.006232808206870438585967
298.000000 -0.015884230610716622289491 -0.026761898148648075729250 0.051788079191400965273218 0.020623993575837468172907 -0.006477717557443180181054 -0.006563049626711960592151
300.000000 -0.016898780299114735115040 -0.028342959931161027659074 0.054931187531839155424596 0.021903077355957766697570 -0.006810334382442296934090 -0.006916036544075687686473
302.000000 -0.017968147417395219367364 -0.030043637904708923869190 0.058274313431824209530419 0.023274168713059675134280 -0.007164601577907787205435 -0.007291897296912502705879
304.000000 -0.019078127729917175592345 -0.031891616191750904452107 0.061688916665915013992638 0.024702894784499322688998 -0.007541741950011350212324 -0.007688726132457950751542
306.000000 -0.020204983414943981229195 -0.033905220361263407879981 0.064974288396809659618114 0.026127613248344679075519 -0.007941516106698869384428 -0.008101443031379823925264
308.000000 -0.021316324670033633820188 -0.036074775259067153043713 0.067923401549384795905517 0.027480388227235887782518 -0.008359490063813883667376 -0.008521420192348975325425
310.000000 -0.022380034023880873012002 -0.038363031252437264362332 0.070396754992560497954379 0.028713632867845551716046 -0.008786129636137691295561 -0.008937661464387300705448
312.000000 -0.023374488068774994936616 -0.040724159149325998841018 0.072344022107611372085501 0.029808591432100382118131 -0.009209713677403997059145 -0.009339333348780972862690
314.000000 -0.024290534909494995718937 -0.043120185069521060894360 0.073775924339699788800928 0.030764253818588140065859 -0.009620885607736539071877 -0.009718321588749669059926
316.000000 -0.025125214905844031609838 -0.045522468445746568088683 0.074726699365759097215545 0.031581797904249295227963 -0.010015470581583552425742 -0.010070494371517010878669
318.000000 -0.025873783572369416644543 -0.047903816803979641647526 0.075230561026627035259295 0.032254235303657625977269 -0.010395028435952934076081 -0.010395703211141317165445
320.000000 -0.026524474879759965539883 -0.050230984345593705786559 0.075313447547018103067629 0.032762889924722371493004 -0.010766183009256281855048 -0.010697134128923393298072
322.000000 -0.027057915585418042259125 -0.052462932109378607181682 0.074994091616400443411905 0.033080029392142752675543 -0.011138981199743637484634 -0.010980029640438209934117
324.000000 -0.027451819978024760704471 -0.054555633414119744650783 0.074288677482939435847697 0.033175844404175737489826 -0.011524272941354661223268 -0.011249890924036325123847
326.000000 -0.027688228099475433591214 -0.056469381779576395541387 0.073214772182707582581784 0.033026066765034868544237 -0.011930812745026331267439 -0.011510768132777503616748
328.000000 -0.027757298077997708679598 -0.058172183322590255427631 0.071791863031798505700998 0.032615367149680878078311 -0.012363523509725493979006 -0.011764343711586706248129
330.000000 -0.027653041587245411753182 -0.059635255925419183853364 0.070038868467347317747773 0.031934361572550952479421 -0.012823992575914188937758 -0.012010235765404948804491
332.000000 -0.027364777912887633393169 -0.060824878986626675081428 0.067971687741787703562757 0.030974328857546151033686 -0.013312184898432336682683 -0.012246917502126893409486
334.000000 -0.026873647180678895962647 -0.061698738780691562977321 0.065604323199860634097114 0.029726720629630394576726 -0.013826804643452140358706 -0.012471737935524012524935
336.000000 -0.026157507009027584216065 -0.062209447828848227213250 0.062953768970878024036075 0.028188584368616161068832 -0.014363986905096404536608 -0.012680140756705659405013
338.000000 -0.025200067719940828780967 -0.062315216673506444722275 0.060042816356067896244042 0.026367576066277507995661 -0.014917207012155981118995 -0.012866454631728472743357
340.000000 -0.023997199239091861200368 -0.061992755260031451314262 0.056898585515168360882132 0.024282933632186306377454 -0.015480088835909722871920 -0.013027611255759284983324
342.000000 -0.022557843029379933547096 -0.061241829736055582167342 0.053550540214927180859839 0.021964043125381020604703 -0.016049780813795447298453 -0.013167367389224140031279
344.000000 -0.020904682550658658379827 -0.060078799088027101671372 0.050030541246884267791994 0.019449487929146757475563 -0.016626591871995683585839 -0.013296322950020275296956
346.000000 -0.019078589454277893044942 -0.058528536860620233861496 0.046373603247790523562699 0.016788008750690315562526 -0.017207974137918705115347 -0.013425144726562976416062
348.000000 -0.017139300564839986956711 -0.056617928777398324191594 0.042618498240597733894841 0.014037781663571967383231 -0.017781555648295574445505 -0.013555254946034227606089
350.000000 -0.015154877845041271958171 -0.054371761455851375099968 0.038805276287687991143560 0.011258705621080149911206 -0.018324910623608917786820 -0.013675512126135502127822
352.000000 -0.013189447832968654097940 -0.051821438806403462284944 0.034966160069704058099838 0.008500066503227364858586 -0.018813184023564164665254 -0.013767980000646299829081
354.000000 -0.011299796227010190999285 -0.049022627877370598958873 0.031116246575992628775609 0.005793311725289214744739 -0.019227115501715873191468 -0.013816306975605874285407
356.000000 -0.009534893014231621971577 -0.046059980581034012936392 0.027254830119206967936618 0.003155094164699120875411 -0.019555193933106923553922 -0.013809552257840149516732
358.000000 -0.007933502252817274322250 -0.043034081533503867889046 0.023376302523360700108546 0.000595981720082610385951 -0.019790939500142948337391 -0.013741009490128332226622
360.000000 -0.006522876966184107047630 -0.040044312147600583107199 0.019483331465806410370822 -0.001870695061444870369027 -0.019929117288139869268448 -0.013605412023950168992625
362.000000 -0.005318626257855474728786 -0.037177169493620258744482 0.015597639390887131638497 -0.004222323695130017831567 -0.019963675239583356796347 -0.013397772917980940027283
364.000000 -0.004324902100263994415841 -0.034502244448963055589719 0.011763277073955200405231 -0.006425554977758090625939 -0.019888153392777448147388 -0.013114482525589631067842
366.000000 -0.003537415866801059665531 -0.032076709297264402453997 0.008037218566198800137612 -0.008441663684968703576517 -0.019696604915032542293396 -0.012753944058629788221859
368.000000 -0.002947674807415845942005 -0.029949487691623512264361 0.004475321203888305530982 -0.010233869365255731515019 -0.019382956351844896764058 -0.012315087668640636517359
370.000000 -0.002545314676717396872724 -0.028156025435546870594461 0.001129989980228425635808 -0.011767837419868054996130 -0.018938507241996010294072 -0.011795014250088477203438
372.000000 -0.002320290344513304629098 -0.026709996185202339313847 -0.001941425673508036329334 -0.013006405298590369840062 -0.018349606443315558818030 -0.011187755182589286320760
374.000000 -0.002261339738342067404164 -0.025599955837413410075776 -0.004674543513637695497931 -0.013910445892940423440187 -0.017600284218833053134778 -0.010486724422991129321292
376.000000 -0.002345938750217455535940 -0.024789314039138095335790 -0.007011051373774937998939 -0.014452569984271487410488 -0.016682228181884199008644 -0.009691645550207019302325
378.000000 -0.002532231019734164194357 -0.024219579820653938662112 -0.008916563322050667997343 -0.014632837895745074568987 -0.015604985188066567564080 -0.008814794186766079092665
380.000000 -0.002763598836994962410635 -0.023818799549460870773609 -0.010386985576202883638230 -0.014480904746278141018156 -0.014396943922640063895368 -0.007880703323084149031219
382.000000 -0.002978916654881318733933 -0.023510129866655838509759 -0.011441502905570461595675 -0.014045395175974995441437 -0.013098165968435996481256 -0.006920696867048131695199
384.000000 -0.003119736662853616303293 -0.023216404332752314798594 -0.012111905450008023099606 -0.013381709737221848116606 -0.011752272290206609850483 -0.005967080652323872476395
386.000000 -0.003136311614386456340237 -0.022863786429941860417481 -0.012436424599012367228634 -0.012545689098175379777578 -0.010402114175330341022674 -0.005049924302320263347355
388.000000 -0.002994530976121478373086 -0.022386561496853293884435 -0.012458263663151177003119 -0.011592891386634681868961 -0.009089224846523398168574 -0.004196319642439548178170
390.000000 -0.002680844909630207464207 -0.021732553582069564362955 -0.012226248647964623253448 -0.010578854135040536427192 -0.007852954086924344989651 -0.003429455131901476376555
392.000000 -0.002204398471472788969411 -0.020867658310598054954843 -0.011792568425526232106515 -0.009554338492980140110089 -0.006725015402997096616855 -0.002765154854157041239976
394.000000 -0.001599773953873339553747 -0.019779367536138452166039 -0.011206335735438372955275 -0.008556623127047434385073 -0.005721924373879045538915 -0.002207773311028870741324
396.000000 -0.000926987879491050510011 -0.018478946182113577256789 -0.010507658451074118610702 -0.007605261941815664832045 -0.004843217721312254205046 -0.001750177894107532699380
398.000000 -0.000261678089404484518366 -0.016999554632553950245244 -0.009725948427064355986116 -0.006705953070173956663547 -0.004077453217965705360715 -0.001378532504891548946327
400.000000 0.000323345124393161300648 -0.015388681091064589437356 -0.008881904363704487895270 -0.005857660805281468888173 -0.003409898835466741110617 -0.001077744604863233555958
402.000000 0.000776919056660347034232 -0.013696204770637409806056 -0.007990474351966134203273 -0.005057648934276807485555 -0.002826886438879154181403 -0.000834448038790889341440
404.000000 0.001079935226855623878889 -0.011962339129033517162726 -0.007063767522327534832682 -0.004303761073306589662879 -0.002316977479506088927197 -0.000637733687345289654118
406.000000 0.001242111769621553505824 -0.010214228254301824933004 -0.006113518647847641929172 -0.003595224531510277793389 -0.001870890087646742997937 -0.000478910393597932546993
408.000000 0.001289569960693782296746 -0.008475982264517361100542 -0.005154003010699521013238 -0.002933131695421978095417 -0.001481336888774443345460 -0.000351072895915712673062
410.000000 0.001251884224367566826250 -0.006787818437431333493115 -0.004206174392801708718237 -0.002321425520376741921669 -0.001143100673144606437351 -0.000248704080147530088088
412.000000 0.001154579263308153471226 -0.005218172271148032066723 -0.003300298308740757472629 -0.001767521752950558001916 -0.000853065027726354380318 -0.000167395118626351233765
414.000000 0.001018826755878520819165 -0.003848651622018995580726 -0.002473091060625608444273 -0.001281464918314941187419 -0.000609839237021645949079 -0.000103756634350254806748
416.000000 0.000864372597512318889892 -0.002736224135495538174745 -0.001758345809748925380953 -0.000873072389742013421111 -0.000412830342668847279954 -0.000055457472054254376877
418.000000 0.000709938170047228703924 -0.001888096696212974772919 -0.001177349118005604697301 -0.000548351348810326524354 -0.000260854581275127837044 -0.000020933369812817932654
420.000000 0.000570029879021485808531 -0.001271019673860267467508 -0.000734136834391376337863 -0.000306447454148303329892 -0.000150708135360777160331 0.000001325193172492283732
422.000000 0.000451768403393222920620 -0.000836423342462486304680 -0.000416326037493301931783 -0.000138632137716948789950 -0.000076483303030096193536 0.000013391856025954000176
424.000000 0.000355317376764579509387 -0.000538669458103638765407 -0.000200950929289873275480 -0.000030552562981964162992 -0.000030397806387410588344 0.000017868186486919340527
426.000000 0.000277420821048116441124 -0.000341026578237992776879 -0.000062687733524286549979 0.000033254914103353798774 -0.000004665197888998245051 0.000017305930652575336536
428.000000 0.000214403750965475351723 -0.000215259956568029518949 0.000020432181449851668500 0.000066080656275408153626 0.000007184887405715406112 0.000013768958343063698562
430.000000 0.000163351216152808842658 -0.000139567670434618060086 0.000065468034320786762967 0.000078077958422003251285 0.000009967889628657937881 0.000008708487460185860594
432.000000 0.000122050845680254948546 -0.000097366359766228692128 0.000085063058930832444854 0.000076727611780455653263 0.000007191193553506241608 0.000003126962910942121089
434.000000 0.000088625797993968483991 -0.000076561122072089403466 0.000088587309324576326360 0.000067644673679818112283 0.000001489577657721129810 -0.000002246967950054475056
436.000000 0.000061550164825873956336 -0.000068663226528222330732 0.000082907028956083283306 0.000055059331662181648474 -0.000005147566357722988674 -0.000006894338206526966404
438.000000 0.000039869310385987102017 -0.000067649298717468894478 0.000073083750805237051467 0.000042080307679539679961 -0.000011322887708296008717 -0.000010520576642811065691
440.000000 0.000023192793820651675941 -0.000069297441816029464907 0.000062521688375151510944 0.000030603401006915748050 -0.000016298823653194610748 -0.000013100013555378904181
442.000000 0.000010993989480443323558 -0.000071190562577950575076 0.000052991466552510127855 0.000021388212837830882071 -0.000019884894677015630342 -0.000014768142815580869034
444.000000 0.000002500183484605799682 -0.000072318246186143730837 0.000045090660895816009768 0.000014395474365170023799 -0.000022234317286664827804 -0.000015729562548227880891
446.000000 -0.000003223770557156285814 -0.000072471152949932969795 0.000038761638008360122659 0.000009268396661743449839 -0.000023598117639753688634 -0.000016169483957428653812
448.000000 -0.000006962986155730200784 -0.000071760365559437867778 0.000033782613765236635362 0.000005587080512430840638 -0.000024227204206477899489 -0.000016239608987957591084
450.000000 -0.000009310218325123942635 -0.000070362498682759110308 0.000029870326406522745095 0.000003003042050039830190 -0.000024313733312923468738 -0.000016045105276475315071
452.000000 -0.000010687139305720836356 -0.000068473458541973400470 0.000026822049588802372190 0.000001251159283182433091 -0.000024013064919798729214 -0.000015672248428392046208
454.000000 -0.000011386059828405583615 -0.000066262091819346651250 0.000024379790344863686930 0.000000078025941194380546 -0.000023455049136474957045 -0.000015186782847297281614
456.000000 -0.000011635720059928252672 -0.000063841350670207987249 0.000022423367753807273774 -0.000000663096727391530750 -0.000022726904861593733454 -0.000014632841639168367133
458.000000 -0.000011589925733832596807 -0.000061328629220277464085 0.000020781025574931918758 -0.000001140146589183954397 -0.000021906348739515550515 -0.000014046868736651145796
460.000000 -0.000011338176631299651207 -0.000058740402690686199468 0.000019375044794250452041 -0.000001439773263982519109 -0.000021033310472156993050 -0.000013443262697551137442
462.000000 -0.000011028440779506378273 -0.000056277927099175786938 0.000018146272092661710817 -0.000001611361542594959522 -0.000020140206652883834712 -0.000012838601365163515442
464.000000 -0.000010643104765386070026 -0.000053819527691505090041 0.000017059292972257081067 -0.000001699560890190910856 -0.000019251622763258797501 -0.000012247330459436317777
466.000000 -0.000010225278759465481753 -0.000051413285619846456093 0.000016084597234971208870 -0.000001729876513347756132 -0.000018371437340146672557 -0.000011666655308870772442
468.000000 -0.000009777306751160918472 -0.000049116301551084031991 0.000015164499086826614053 -0.000001739799690906366747 -0.000017517643256329345044 -0.000011106776445731081026
470.000000 -0.000009352912425867673790 -0.000046901880900895939351 0.000014335499064417288453 -0.000001709064622753302680 -0.000016687116215532421114 -0.000010566399714135087126
472.000000 -0.000008877195816513697919 -0.000044725389856778264923 0.000013570852697224917519 -0.000001667526595258073932 -0.000015893783008006084624 -0.000010056388841954779395
474.000000 -0.000008435626833237555895 -0.000042655921957091675299 0.000012832610760567141742 -0.000001634134848930114749 -0.000015136744540288848035 -0.000009569162379970664830
476.000000 -0.000008009468545651119166 -0.000040701460534694840665 0.000012148200768348068956 -0.000001583232252351876372 -0.000014409102194832596909 -0.000009101604304489024065
478.000000 -0.000007606364687247350608 -0.000038799489624571612304 0.000011518359756380446368 -0.000001529891765788010044 -0.000013714037951632036959 -0.000008655208904394926417
480.000000 -0.000007195272945835933392 -0.000036969536150837693463 0.000010918826614301387610 -0.000001476728150522571499 -0.000013060615173709995540 -0.000008241430435975866616
482.000000 -0.000006824104340626651585 -0.000035234493731805536555 0.000010367058239547849099 -0.000001415134365499047088 -0.000012433774727581135521 -0.000007845005520072672009
484.000000 -0.000006449729774378129125 -0.000033518606792653375442 0.000009854923121960332700 -0.000001360772824760807377 -0.000011836879692490875644 -0.000007466086493015645120
486.000000 -0.000006148636896227343533 -0.000031909697085996973807 0.000009362199693610042832 -0.000001292757828881112735 -0.000011265731966769507093 -0.000007107443830532044991
488.000000 -0.000005845685019824001877 -0.000030389621185620038752 0.000008896536746873539536 -0.000001229650871689543091 -0.000010719101218810016306 -0.000006763388675609647741
490.000000 -0.000005553400283631189813 -0.000028855792628147663965 0.000008477978914931105556 -0.000001165719845516037465 -0.000010198841844338508501 -0.000006436069339196133805
492.000000 -0.000005273142425254355117 -0.000027401245374494828991 0.000008086068962924101330 -0.000001104178448854881038 -0.000009699824736250245528 -0.000006119543375373939560
494.000000 -0.000005056871480489228138 -0.000026058031285772512777 0.000007728370020806441088 -0.000001041396206172289992 -0.000009228597262748759820 -0.000005823492291173033911
496.000000 -0.000004800507945326597641 -0.000024751574588755590703 0.000007387624864193688260 -0.000000974542611243305805 -0.000008780566787627401706 -0.000005544465848800403588
498.000000 -0.000004569522523816357336 -0.000023565688590088807028 0.000007035278556866201236 -0.000000918919042101441557 -0.000008350818313112536365 -0.000005273492496764159544
500.000000 -0.000004331944608975009472 -0.000022416186000434733548 0.000006689540099757751387 -0.000000878108037537290514 -0.000007945343634772908745 -0.000005017767026452323300
502.000000 -0.000004118106123362465607 -0.000021375221925027821371 0.000006367623524499724052 -0.000000823506333195008087 -0.000007552473020522001915 -0.000004768641105694717678
504.000000 -0.000003950907144417479057 -0.000020360982901787123237 0.000006096544734937972790 -0.000000755831239641123215 -0.000007176041160078731507 -0.000004532685606131814752
506.000000 -0.000003777561993737015367 -0.000019342247761134778191 0.000005824650685777067230 -0.000000707169614994932498 -0.000006824839894104023639 -0.000004309423924011816690
508.000000 -0.000003623397777634538840 -0.000018438959496510447901 0.000005538698819246696720 -0.000000680428069615146291 -0.000006496924081082390901 -0.000004101333371871163273
510.000000 -0.000003429159374837900174 -0.000017549380386232296095 0.000005265558591018994145 -0.000000649388273308104425 -0.000006182261645864137689 -0.000003902508512614889034
512.000000 -0.000003200992557770752902 -0.000016683829801432088698 0.000004993513769918483563 -0.000000630346292797413783 -0.000005893179862421906869 -0.000003722013914725429481
514.000000 -0.000003044011145511265781 -0.000015837452589074163084 0.000004767022731013429529 -0.000000593847520547061037 -0.000005608664494768186390 -0.000003544553934773917370
516.000000 -0.000002924786618994683377 -0.000015060014540108380016 0.000004579675993656604708 -0.000000536908421572432752 -0.000005324934612880558748 -0.000003364555600802210320
518.000000 -0.000002843867478218141448 -0.000014421185617449251782 0.000004364727173339171584 -0.000000499503606264356439 -0.000005059537389945383219 -0.000003195165506993008852
520.000000 -0.000002743692072471040235 -0.000013727324967443167098 0.000004172461407068494204 -0.000000469459591982734264 -0.000004816525238524641866 -0.000003042418975127652302
522.000000 -0.000002588681976334197416 -0.000013029277863638885379 0.000003973427991532094600 -0.000000448694282783638988 -0.000004588005483245861093 -0.000002901091666431280061
524.000000 -0.000002433316139953293499 -0.000012403306813817373608 0.000003803170579685862447 -0.000000418518255211587706 -0.000004369873059471646658 -0.000002766346948564010585
526.000000 -0.000002288747329719502240 -0.000011793618650290958928 0.000003638749014715124631 -0.000000380109159252154297 -0.000004152242738522608796 -0.000002628261509929735893
528.000000 -0.000002153776387100689377 -0.000011202976321876240452 0.000003481613050285834609 -0.000000341902835830465166 -0.000003948633311962656341 -0.000002501743075936459501
530.000000 -0.000002057160343476385523 -0.000010667958033729802624 0.000003337392274836756048 -0.000000310107061212288369 -0.000003758427197026415744 -0.000002384050906248550563
532.000000 -0.000001975039444810381491 -0.000010139863942065727176 0.000003192225148647318533 -0.000000289709500024343943 -0.000003581639764981242750 -0.000002274145618392926783
534.000000 -0.000001862590262899224578 -0.000009625012169523540641 0.000003058962962646358098 -0.000000262524754951175527 -0.000003407438927783000270 -0.000002164400168057309567
536.000000 -0.000001774796183283158622 -0.000009186037675741120996 0.000002939461328837470671 -0.000000235179421968937806 -0.000003243419827088477432 -0.000002062439978064649271
538.000000 -0.000001777672754840945103 -0.000008815639022708318833 0.000002818725043973908431 -0.000000204859896168789304 -0.000003079407942557716049 -0.000001955869348234899992
540.000000 -0.000001703173344823306844 -0.000008452628103920552184 0.000002671061472855945570 -0.000000200150243003909914 -0.000002937632609994467147 -0.000001866171631483471505
542.000000 -0.000001616156810017739738 -0.000008078496875108423205 0.000002539566557496271019 -0.000000195251847695427398 -0.000002802982615804194077 -0.000001782087285281147801
544.000000 -0.000001549970581180010269 -0.000007712215519977329173 0.000002427757342872079628 -0.000000184394199520802612 -0.000002669910312900084504 -0.000001696905499287080586
546.000000 -0.000001477453605191024762 -0.000007304064521043043277 0.000002331991084872505055 -0.000000163920458953894434 -0.000002540278065976063172 -0.000001614668964506659368
548.000000 -0.000001375446523690521466 -0.000006887205596319300366 0.000002225051371558932034 -0.000000160193219154436669 -0.000002421809802768615089 -0.000001539831402130796970
550.000000 -0.000001308946561956765110 -0.000006541532680745553245 0.000002139688358563015961 -0.000000145898466854158556 -0.000002307487048276323704 -0.000001467846088349524177
552.000000 -0.000001286761046995386161 -0.000006312941269050525342 0.000002016817196924293810 -0.000000143269982286767318 -0.000002197663012351113176 -0.000001396810333639692850
554.000000 -0.000001250314570417245715 -0.000006064607256735890776 0.000001926853170459474594 -0.000000128573319198380981 -0.000002089612643909206953 -0.000001328704360785564845
556.000000 -0.000001134445683714721856 -0.000005719723659493473784 0.000001819805811176723829 -0.000000139091122143375497 -0.000002000295581749482805 -0.000001272647136135469782
558.000000 -0.000001082644816185856775 -0.000005481894800952174898 0.000001720490327875730891 -0.000000139883695593621960 -0.000001908784367249152606 -0.000001216043641813161054
560.000000 -0.000001062896035622102645 -0.000005203151047198755845 0.000001666205430307652565 -0.000000120439604699992294 -0.000001817595170923788981 -0.000001159963395608295440
562.000000 -0.000001039044038759155187 -0.000004961972261580783550 0.000001606316474738091614 -0.000000104434309384495813 -0.000001730536588276655725 -0.000001106616014034424040
564.000000 -0.000000972233954167185366 -0.000004742387519166385908 0.000001547226387824861107 -0.000000092483615839553027 -0.000001649621030241851731 -0.000001055121096433145484
565.560000 -0.000000914292326150648181 -0.000004599785290551613469 0.000001460722408522080212 -0.000000104294865186784749 -0.000001589639235481015098 -0.000001013822642350830787
