0.000000 -0.000000000000000000000000 -0.000000000000000000000000 -0.000000000000000000000000 -0.000000000000000000000000 -0.000000000000000000000000 -0.000000000000000000000000
2.000000 0.000236316866505657162617 -0.005778501747628011706026 -0.004322234085402691314282 -0.002099175227743394888530 -0.000384890837505249216142 0.000112877792825273406160
4.000000 0.001060119598433687578692 -0.006937315725426518656094 -0.007460600068894453901214 -0.003536402087306386200771 -0.000399281366329708024311 0.000375999168826424536374
6.000000 0.000932637208779102020416 -0.008916340971163104825448 -0.009898275752863413753935 -0.004336572134845368721445 -0.000276662364828082459403 0.000591567172910497751474
8.000000 0.001173687502807337079691 -0.010709117484428997552071 -0.012164788737861234949045 -0.004861895528765945717620 -0.000088185305372722792264 0.000803853550534582321149
10.000000 0.002180899790545797259367 -0.012658342051177114140348 -0.015090773672909292557609 -0.005554307061915368312621 0.000157796732742641795380 0.001043482136155584943590
12.000000 0.003187497278927773312895 -0.017901745143095296186608 -0.020704250295429139916425 -0.007067704476160327486944 0.000352853089457517271870 0.001352261653558658799010
14.000000 0.004912404001671296337184 -0.023307993780836117059252 -0.027857344459336911418612 -0.009355411358315824169041 0.000546505130490107841022 0.001746818844038015502984
16.000000 0.007065681999768089367742 -0.030717222786439273701786 -0.038219797367589410097555 -0.012848088885510162288073 0.000766931239120358272665 0.002303714478406538018057
18.000000 0.009798694873185609041655 -0.039979712508220542621640 -0.051457667146019736570395 -0.017430457721331137077581 0.001114386865527242521240 0.003079889550847575169917
20.000000 0.011912003991810452344091 -0.048902294413674676776260 -0.062804907211722049709124 -0.021314175623995363501040 0.001803194182577114819052 0.004105166660271440323693
22.000000 0.014281968335113515849999 -0.057016614423511802201006 -0.073937305018133961387328 -0.025099130190691754799248 0.002535618746806407412808 0.005113195883990988115098
24.000000 0.016702713811551257727661 -0.062544364127575524658909 -0.082903048914918897605020 -0.028301082225616124715684 0.003353899088041604852062 0.006127095547965673641433
26.000000 0.018754484922447529904321 -0.066918704515769603102804 -0.090645183830915590506017 -0.031360111622286815369343 0.004429653324958983742765 0.007577754707403390986575
28.000000 0.020237972517700555941111 -0.069716891950947740275168 -0.096071135965949391866125 -0.033986722166434384095890 0.005197186830386082284639 0.008718919854293717686122
30.000000 0.021665886060496849369050 -0.070647601355557324009915 -0.100573569608275029119149 -0.036578799563586048004815 0.005939764568723059252886 0.009890745761480182127179
32.000000 0.022958190853636258749182 -0.072242387785163342250883 -0.104613330374391605426254 -0.039155606333637620053434 0.006450184933900574360544 0.010712127445377684492600
34.000000 0.024737210901039669019852 -0.072524555786240077481786 -0.108611516242033551149504 -0.042228356163335131756575 0.006843560245058437352395 0.011596173861932583884493
36.000000 0.026465052528635922557410 -0.073032594998550914855429 -0.111519158148261049445793 -0.045126073139647920884343 0.007151117344597998810862 0.012191601586491320613481
38.000000 0.029151298259735416301686 -0.074152127349370738906842 -0.116130260899816664665885 -0.049454282543199439003967 0.006829642104496048450601 0.012318184726823893856973
40.000000 0.031931311189726876986761 -0.072219887302292576358731 -0.119083261729417036467460 -0.053568689065061840526294 0.006469939788519738291250 0.012493163921262524437839
42.000000 0.034187880153504018876376 -0.072511149967977958641363 -0.122571398416442323142661 -0.057579796896836545061493 0.006348815453494058985706 0.012964112911434989838799
44.000000 0.036902380087744532377592 -0.069783144013561018703662 -0.124239606073410807640656 -0.061193561762181755692147 0.006085310709079007340794 0.013168668694208650327138
46.000000 0.039317736826981058984032 -0.069411314004039825764636 -0.125982681914120875354968 -0.063834152919459083430631 0.006334016148935322013114 0.013663919549491506180705
48.000000 0.040449758610427502536488 -0.067255016340452528078586 -0.125997110638021131423514 -0.065363761609242995720415 0.006949674499792382262320 0.014276424375789534271242
50.000000 0.043373793672109105246104 -0.064993689254306361013924 -0.127100283679902809064188 -0.067679116358500365779882 0.007194209552785368715078 0.014549909636067006116211
52.000000 0.045623198459621414069254 -0.062038305245559345613149 -0.126511559992390665296824 -0.069201841374694317288174 0.007727860172317927746344 0.015068501449522646307155
54.000000 0.047353547204199458731111 -0.060508687249949864861431 -0.126807993957677361818170 -0.070540403650003788427192 0.008520988174184613087037 0.015964903198003092127388
56.000000 0.049450711221430562747337 -0.055244395754877662074733 -0.123496815277995886095397 -0.069824230852641194777775 0.009659190416312414886879 0.016716327281170763330298
58.000000 0.051612568617697307526981 -0.052606970350966182625729 -0.122104245056300200755750 -0.069739986205848314426703 0.010277931759501564637493 0.017049698944148775070495
60.000000 0.052949377114083553963475 -0.048698042600271350399677 -0.118304925978950023490732 -0.068055812736180984479084 0.010888775051663295012627 0.016915117251992694419327
62.000000 0.055028949136344970649581 -0.043906420959924523372830 -0.115073172546617738531971 -0.066528463508973720297313 0.010988461812083485241720 0.015877240776133155070182
64.000000 0.053721635181658317081954 -0.041867495391456642506167 -0.111679579616953225662535 -0.064163811891471772552720 0.011400128678769020848516 0.014979254409766516731306
66.000000 0.046892565393055675448952 -0.045975474885056329121813 -0.109686203932455553222702 -0.060348881788726563280001 0.012407905353079567642438 0.014119701779983145906172
68.000000 0.040727678382291930547776 -0.046850322704884310442974 -0.104669136897377626493899 -0.054294075595140434131736 0.014428395675474429971086 0.014046055079876409305006
70.000000 0.035274813654426057096813 -0.046019074001513449179157 -0.099127783289921556075797 -0.049089752667237931960109 0.016564872137622550091196 0.014797111479296437552833
72.000000 0.031885160760006379943032 -0.045833860239948211179328 -0.093364464945648872884476 -0.043760039897522896856774 0.018918438258207919550058 0.016038498986162899595520
74.000000 0.025210830891811066012398 -0.047210917537070948291067 -0.087900231372476850255637 -0.038739334161091973363078 0.021305262017384599126935 0.017504785547268260359477
76.000000 0.019566003956073951125516 -0.052680296987915660456014 -0.084919444794872248061246 -0.035296239986655583709130 0.022774521435448051576156 0.018271453803780160485282
78.000000 0.011480823242099966186025 -0.059194266216144902914564 -0.079424379698535288452099 -0.029451329387195229053686 0.024868042799857274088859 0.019065818708422443972239
80.000000 0.004560212500985923872454 -0.067276775726702472968377 -0.074991629834857867487052 -0.023747670523586499047308 0.027737239488839271484011 0.021515923712062838546455
82.000000 -0.001689595563197579617537 -0.072085699806231195996276 -0.068701369366078610112503 -0.017693880886691937259769 0.030105369325901028265680 0.023002438726356381343274
84.000000 -0.005710187584188447865174 -0.076828465495064071633102 -0.062609306605976730586427 -0.011701391969256581468417 0.032061667061661601463296 0.023856244785302283678563
86.000000 -0.008838882250584413624583 -0.076766993149099002624602 -0.052045028998788323004732 -0.003941754676842578949958 0.033938883917270720735893 0.024216382713789012109951
88.000000 -0.010573821748397283989962 -0.076693220591859789792011 -0.041967052343841626527166 0.003720762571732836709176 0.035644486274136882864028 0.024331571198794570837221
90.000000 -0.009418383454089561748757 -0.074863041268957125629058 -0.032338776837983217171679 0.009989757266435002683314 0.036609977775997747106995 0.023852485338546343396349
92.000000 -0.009649003127515579439355 -0.073665287090212069887052 -0.023745576217872991359181 0.015422926887002986681696 0.037282026279747582098167 0.023181578126268889000761
94.000000 -0.008370930763568611501779 -0.067731858935791103282220 -0.012555897328689792288858 0.021675261197966238374546 0.037996566893967749500849 0.022382329210572170230531
96.000000 -0.006256179626734861658199 -0.062157314638893047809010 -0.002432346124756775383735 0.027225588233394704823498 0.038398551865047141073983 0.021325557633967203580161
98.000000 -0.004025867520917681199877 -0.054006215341374730343205 0.007226836370147334161207 0.031331920723745812495942 0.037834494760273368330061 0.019721169383525482404762
100.000000 -0.001894896394560066556906 -0.045328887760293277986445 0.015910372912950995066828 0.033916775887863501171005 0.036138727505846512944032 0.017498067091494932251416
102.000000 0.001159140672847621279101 -0.036159487962814776396137 0.022131789104441145638047 0.034614543998290184245725 0.033684160391314055260636 0.015021703113219930791900
104.000000 0.005037278255826029699227 -0.027936425577238969270022 0.026684874667802654241155 0.034096777353962499923501 0.030484267901317124022098 0.012192774782253158055711
106.000000 0.009798323130825983134917 -0.019418639737507153997242 0.030418970760258994684433 0.032897898758187077428161 0.026767674645802732452671 0.009211908987703803716740
108.000000 0.012806524497926260672265 -0.011593760293875373518224 0.032753639864239597612183 0.030951782611312327747610 0.022898933928172892499076 0.006351670824345014357282
110.000000 0.013155540097694326875932 -0.006033976434399190152957 0.033338302671178030034405 0.028313257766189772746124 0.019215725026507052969338 0.004069484653530884739336
112.000000 0.013437616834736845067289 -0.000740833867887681412831 0.033147909007701509276345 0.025987287102092335860926 0.016354943271995964204635 0.002434647766096857245816
114.000000 0.013058697036344020861454 0.003661186251277363801204 0.032663566793237328034216 0.023974286926223487698140 0.014040019516284156855801 0.001288281839604936418464
116.000000 0.010408534662773716653050 0.006828872763528366120200 0.031987029788271711949754 0.022643039823095685580956 0.012611912608579299230338 0.000791732896845993914907
118.000000 0.004051046833144039856223 0.009167307731759496286505 0.031438978645429264957567 0.021550333409121654598684 0.011362268847076278932562 0.000507569152780111619398
120.000000 -0.001254655218647645264704 0.011462245874355096383890 0.031067421099197536915604 0.020642193971811606534317 0.010304448570115760930310 0.000342456788213709839141
122.000000 -0.005995048744413984664892 0.012335019059913607947232 0.030250630974608158640926 0.019588712979055174917553 0.009264051203121690183928 0.000190675385590649402621
124.000000 -0.009882847487589213955617 0.013637812499780885971967 0.029424883212745618632500 0.018387090319347269146144 0.008121798569022602859446 0.000016423183493596411029
126.000000 -0.010500628056597773041236 0.013832287790911548461259 0.027938874887810050129389 0.016969364730434501747913 0.007046610736372753598655 -0.000165461600847100121945
128.000000 -0.009383989716793481039581 0.014218780974884697582139 0.026018579734546992687783 0.015227767341553328714343 0.005824435129653131315575 -0.000421812274049409500869
130.000000 -0.008303653340411460553883 0.013860274672925342737129 0.023735368249576723614913 0.013504522525799244128675 0.004745518929346077309506 -0.000575378388466107676055
132.000000 -0.007126484672483284106559 0.012932624844830327426326 0.021275804019969583869010 0.011701190113137065890170 0.003655007076092280093871 -0.000724565305659848925279
134.000000 -0.006161601111829024396416 0.010823908555645153292679 0.018329097119032113083481 0.009872355477130799472629 0.002658644591433298107197 -0.000803752955702800777477
136.000000 -0.005348632559519823567729 0.007495551360188934704454 0.014709289137891410487180 0.007781128404681294553902 0.001619517805770061789905 -0.000831772833839036058144
138.000000 -0.004597263203967050584908 0.005261538530830438264996 0.011776743948273748693878 0.006034524091163519753100 0.000782869049294480012433 -0.000873533840872534592982
140.000000 -0.003686034928538782680374 0.004453220471250405806951 0.009478305724476261337474 0.004515913158256742651608 0.000053550950261403602859 -0.000950914453488891373359
142.000000 -0.002830712636461095183665 0.004153701107542811556128 0.007568443029951379269482 0.003257067136487012438961 -0.000530992519677164027600 -0.001014791834486344739019
144.000000 -0.002268782630263132052417 0.003922784088105299438176 0.006227694000931195857096 0.002413342386559244427680 -0.000927471006797410207033 -0.001062129578600258614923
146.000000 -0.001998778746607992543721 0.003667736058786016852679 0.005324390347923335133073 0.001877509081961451810339 -0.001145556271963730880781 -0.001043426101378035599290
148.000000 -0.002004505309252068139675 0.003846602058444882361182 0.005480927085052834588086 0.001963031765286953229943 -0.001145231523822784654165 -0.001044535342247489544815
150.000000 -0.001979425695063821970948 0.003991485949741822858439 0.005582607015828367109933 0.002019164533868307142422 -0.001148705549051646243944 -0.001034675151485830264450
152.000000 -0.001932450267497837085098 0.004123023820539828757092 0.005665487163301414358374 0.002071131460680559598780 -0.001144188411903789264618 -0.001009476316436988627828
154.000000 -0.001896454140805158439936 0.004213812675852864932102 0.005709402124730353356163 0.002096111142158274629615 -0.001160560647586169301382 -0.001018299865088918105746
156.000000 -0.001890192983649004220340 0.004263357812365670129751 0.005726667424772926423548 0.002111418207969130954316 -0.001173832121804947292015 -0.001024459524207484411445
158.000000 -0.001941190129064341001602 0.004258178334293266295574 0.005716975440046572973229 0.002123645469847894057952 -0.001177442545208341696458 -0.001027067556320251364918
160.000000 -0.001856677205092617738771 0.004365974818066254391213 0.005774878339408480269757 0.002151222410617294016066 -0.001197723876208718141526 -0.001051257089421437588422
162.000000 -0.001778762407852583441598 0.004465409790653023132390 0.005826587560857176065210 0.002166695746976137360723 -0.001223907456362284323567 -0.001072285299127301782737
164.000000 -0.001733691711648945813634 0.004540030410985332158524 0.005869225202339445161825 0.002178818438108809981552 -0.001244256356974245310287 -0.001079987921341487829355
166.000000 -0.001722527174365598087724 0.004587234115040817947206 0.005898571209236802385945 0.002181963617533635210050 -0.001267025243353255047410 -0.001088471196831882316716
168.000000 -0.001732641013720745718982 0.004618941120151271416405 0.005922151217417915766705 0.002179400201247100321567 -0.001292937190173645573693 -0.001099965552947959829613
170.000000 -0.001744046942062684336233 0.004655998005024328777191 0.005956814907790737925741 0.002183766866184998906020 -0.001315909212544799124223 -0.001111232860330355325801
172.000000 -0.001757164810465884369900 0.004697943017190434403241 0.006001538426985359234167 0.002194195510976734361797 -0.001336584896376447062494 -0.001122573975864988617135
174.000000 -0.001772147080229081149427 0.004744463379021192882268 0.006055424752243089223103 0.002209930099146654568915 -0.001355489627323409451004 -0.001134119578294581981784
176.000000 -0.001789072408506715491927 0.004795269075579192651071 0.006117664573609410058608 0.002230308594042368537658 -0.001373074392538864863661 -0.001145962697418402044536
178.000000 -0.001807974418803551686780 0.004850120996731739110575 0.006187556460138609812360 0.002254763803115554868239 -0.001389724774277304548617 -0.001158177668486665362960
180.000000 -0.001828868342904722181855 0.004908832487378233383479 0.006264537660211260371168 0.002282839492197406578572 -0.001405762025060764948761 -0.001170825918577822000524
182.000000 -0.001851747467650613704696 0.004971291389899697675536 0.006348182267695024090515 0.002314179072539748055481 -0.001421452440420528737924 -0.001183960777425428247123
184.000000 -0.001876594405426109659837 0.005037451510823352449076 0.006438194902999880113448 0.002348517521511314220389 -0.001437015241376483724867 -0.001197629925980739536151
186.000000 -0.001903397359386535319867 0.005107319328420658645362 0.006534399544525832173592 0.002385672690577260012662 -0.001452628513105849337658 -0.001211877041027423305281
188.000000 -0.001932150000755374812458 0.005180961067404034163519 0.006636726533223842594555 0.002425529332468874098988 -0.001468440246019017984477 -0.001226744138198050757677
190.000000 -0.001962850864888643267342 0.005258487101401639746134 0.006745195057283020177719 0.002468029014329214086698 -0.001484573611095416339339 -0.001242273273355159590031
192.000000 -0.001995515692088842621410 0.005340047518311454195772 0.006859907317345035823730 0.002513164073215423330310 -0.001501130772049035855611 -0.001258505143702116219062
194.000000 -0.002030176051426428075752 0.005425826946818163715180 0.006981033798629064125729 0.002560964259368489134849 -0.001518201916640705886191 -0.001275483675611386279181
196.000000 -0.002066879150731596673923 0.005516037250163279524739 0.007108805466120344737635 0.002611494826435277211846 -0.001535865861848426149397 -0.001293253819286487677973
198.000000 -0.002105686613543330133053 0.005610930257159018122448 0.007243514118220026158645 0.002664850737030419192131 -0.001554194262390630985882 -0.001311863031738698176162
200.000000 -0.002146681570248490031338 0.005710773341459030906508 0.007385499795299103713286 0.002721153229369834350426 -0.001573253670416723589559 -0.001331361261321497299961
202.000000 -0.002189954444722764723141 0.005815866742683427174920 0.007535150298271799627903 0.002780544482266551157418 -0.001593109122662625604452 -0.001351802867105608707554
204.000000 -0.002235620503330976085316 0.005926540199046067061706 0.007692904173375947687874 0.002843190676353687246225 -0.001613823679523315778386 -0.001373244643703380122451
206.000000 -0.002283807266147735472173 0.006043147522076564720495 0.007859248172962083126003 0.002909280643963999078011 -0.001635459773604827464488 -0.001395747880414119129408
208.000000 -0.002334657487256576631485 0.006166073083364460513667 0.008034711396860148846510 0.002979020844086701334807 -0.001658081676663124021803 -0.001419377702560884347421
210.000000 -0.002388329676513712904184 0.006295732487888903820827 0.008219874927929572000496 0.003052638495315547571135 -0.001681757111474204520116 -0.001444205549262424876852
212.000000 -0.002445002330385178789668 0.006432573720783317169913 0.008415369440846717438709 0.003130383512944571837433 -0.001706554825859117737949 -0.001470306475957726573267
214.000000 -0.002504867398482706064566 0.006577073224848658042352 0.008621874834341278215355 0.003212526509003410437465 -0.001732547220462039979857 -0.001497760761133855702057
216.000000 -0.002568135408805562788087 0.006729746898503401013325 0.008840127128277315560201 0.003299359999544902981999 -0.001759812194087653205651 -0.001526656039547460942327
218.000000 -0.002635031659362670284491 0.006891151920201581473902 0.009070918449893057566857 0.003391200236202316850576 -0.001788431286007630821588 -0.001557085230155106497785
220.000000 -0.002705808678453026916433 0.007061872987169269359764 0.009315096341975862698215 0.003488387097610418791094 -0.001818491190942105647371 -0.001589147253101646584464
222.000000 -0.002780733854392281826501 0.007242543904244236503687 0.009573573924614732152949 0.003591286670204397145356 -0.001850085219378027256640 -0.001622949490018899204938
224.000000 -0.002860094552276554440845 0.007433837720255461606333 0.009847327153714592606892 0.003700292919091172083590 -0.001883311592887049060532 -0.001658605503776953158171
226.000000 -0.002944202006377012563465 0.007636468493522873164647 0.010137395245407659905013 0.003815824978679002634635 -0.001918276905416399849558 -0.001696237969440171113045
228.000000 -0.003033389497245364292005 0.007851196080349166078749 0.010444885969588365431937 0.003938331554834304144841 -0.001955094274324054460373 -0.001735976771289465207110
230.000000 -0.003128014475198893831059 0.008078819064409532499371 0.010770973000273135339322 0.004068290304586589037350 -0.001993884168560457713359 -0.001777960467607544569474
232.000000 -0.003228458077778507614997 0.008320185614038374741219 0.011116901062317526352463 0.004206208850387279166161 -0.002034776009500874772301 -0.001822336778182817368030
234.000000 -0.003335130333449059115286 0.008576181648221955708400 0.011483981866238092417465 0.004352624285209779654571 -0.002077907576677447045593 -0.001869262320219374677935
236.000000 -0.003448466502563731807263 0.008847750668536909571249 0.011873604636560890213115 0.004508105626491911398224 -0.002123427211587768786982 -0.001918904333793304550770
238.000000 -0.003568933910956187047225 0.009135883234802341656966 0.012287236999707174672780 0.004673256241717794849666 -0.002171491732669397593802 -0.001971438956410960247762
240.000000 -0.003697037419099889581087 0.009441639930185458107204 0.012726440245968067416227 0.004848715534667219322074 -0.002222270343576596141055 -0.002027054462768925098548
242.000000 -0.003833316221707704953003 0.009766165899443528600199 0.013192882895891735323124 0.005035162752268622539387 -0.002275944681996533262847 -0.002085951824532828683539
244.000000 -0.003978362194417859459827 0.010110720052902893995039 0.013688378886498615144562 0.005233329917285235721724 -0.002332710028326148276462 -0.002148346430589535144273
246.000000 -0.004132826729737917696716 0.010476708911850282288092 0.014214925855671814436398 0.005444010573867751924537 -0.002392778769276260233262 -0.002214471672062531034525
248.000000 -0.004297427364831941931644 0.010865755356470966838667 0.014774771095963657938088 0.005668080966456813703236 -0.002456382021487579954411 -0.002284582612213210527780
250.000000 -0.004472975582592653501224 0.011279750790086404133028 0.015370490975138468778272 0.005906524669747914048357 -0.002523774273133210822861 -0.002358962166693355771291
252.000000 -0.004660387062296944722661 0.011720937813164184274073 0.016005082803172556576987 0.006160462532369563593004 -0.002595237050201705010510 -0.002437926625253360787132
254.000000 -0.004860705403002494977283 0.012191979301865643950387 0.016682064046874375828899 0.006431188449395281413190 -0.002671084560403897550929 -0.002521834653793274434730
256.000000 -0.005075117112364128067747 0.012696017857349275320678 0.017405561186338951162877 0.006720202044428244710084 -0.002751668597836601053153 -0.002611093703409473991417
258.000000 -0.005304963562357600803665 0.013236692165042928531760 0.018180365702380272413530 0.007029236310898853874740 -0.002837384760776408103300 -0.002706168272400056185739
260.000000 -0.005551746092255781771241 0.013818112472059851728035 0.019011942718517270412004 0.007360274576424799368446 -0.002928675194984944798321 -0.002807583530579854137754
262.000000 -0.005817107722592095714331 0.014444742438919402557906 0.019906344361796356190464 0.007715538827112354385018 -0.003026032431206259181583 -0.002915926485099345349949
264.000000 -0.006102812762045634054076 0.015121185853071622551269 0.020870022223297406832598 0.008097453301210593909487 -0.003129996469193348576643 -0.003031839612663771426487
266.000000 -0.006410697829005601068586 0.015851863531153718989142 0.021909505316626429194393 0.008508562903959872997239 -0.003241150294247173001966 -0.003156007270784549467030
268.000000 -0.006742621192067292483496 0.016640627246164968466857 0.023030973340716191094524 0.008951417119159825810937 -0.003360107969571169209133 -0.003289133243817390396535
270.000000 -0.007100393819904806357035 0.017490328164776459268781 0.024239752627974158610824 0.009428420694758916920097 -0.003487499118242965139708 -0.003431911291162273707628
272.000000 -0.007485730116966115947619 0.018402441369698152584533 0.025539831065507771767908 0.009941680284474218101676 -0.003623948867431345602363 -0.003584992302786461221276
274.000000 -0.007900210990134397606721 0.019376869821880644828571 0.026933519337482985517296 0.010492884437554075502397 -0.003770053182455027854930 -0.003748951004870412599679
276.000000 -0.008345282387459709155797 0.020412048566760737644543 0.028421399172764302831773 0.011083257385991562501970 -0.003926356291704603818093 -0.003924262222132096113170
278.000000 -0.008822308036646572121375 0.021505365216114687154647 0.030002644891394654458328 0.011713623442530192442224 -0.004093334943199765374455 -0.004111295119754048744964
280.000000 -0.009332672068550287164390 0.022653935128875903048939 0.031675729476552838548287 0.012384573029458863582808 -0.004271400977138944260458 -0.004310331381048990682936
282.000000 -0.009877941625692087876387 0.023855583659411021962837 0.033439435519618219971871 0.013096713549327147416146 -0.004460927209151465192005 -0.004521611254027477037887
284.000000 -0.010460074429602145285045 0.025109987907703322507214 0.035294084079069018566877 0.013850966998168423929827 -0.004662307243965800769570 -0.004745411363211650586369
286.000000 -0.011081649066111009735436 0.026419876347232806867993 0.037242877207108539272529 0.014648890221299304750802 -0.004876042642031137158698 -0.004982146658190703125690
288.000000 -0.011746098100666901853373 0.027792270137753590647511 0.039293324197876920711447 0.015493024650908208614264 -0.005102847681739532646750 -0.005232489599683392243745
290.000000 -0.012457869787410381576254 0.029239731705089245378248 0.041458730799692242174892 0.016387311081614560487330 -0.005343747902496916862836 -0.005497489260673738172003
292.000000 -0.013222397746709949398203 0.030781446534063311437635 0.043759668500859279227644 0.017337638092801341965776 -0.005600120221346455151590 -0.005778654045266231990829
294.000000 -0.014045555333757555813157 0.032443370187939434001745 0.046224861311774126382268 0.018352519235154816923394 -0.005873593499180188373665 -0.006077930242675519054152
296.000000 -0.014932234030238460131823 0.034255204659843149772591 0.048889716714611196335394 0.019443531247739606615532 -0.006165739759176542753027 -0.006397478363159700941176
298.000000 -0.015884230610716622289491 0.036239281140111628820577 0.051788079191400965273218 0.020623993575837468172907 -0.006477717557443180181054 -0.006739214707394540829211
300.000000 -0.016898780299114735115040 0.038386319823305939391567 0.054931187531839155424596 0.021903077355957766697570 -0.006810334382442296934090 -0.007104186299854976967272
302.000000 -0.017968147417395219367364 0.040624401337455637306384 0.058274313431824209530419 0.023274168713059675134280 -0.007164601577907787205435 -0.007491741929221186653554
304.000000 -0.019078127729917175592345 0.042806292673718500385593 0.061688916665915013992638 0.024702894784499322688998 -0.007541741950011350212324 -0.007898399173266613254585
306.000000 -0.020204983414943981229195 0.044743804531656349021684 0.064974288396809659618114 0.026127613248344679075519 -0.007941516106698869384428 -0.008317047792364916022900
308.000000 -0.021316324670033633820188 0.046281125989687747768198 0.067923401549384795905517 0.027480388227235887782518 -0.008359490063813883667376 -0.008737499208498393163391
310.000000 -0.022380034023880873012002 0.047348272468761248843450 0.070396754992560497954379 0.028713632867845551716046 -0.008786129636137691295561 -0.009148306914256719088452
312.000000 -0.023374488068774994936616 0.047954106731493188753301 0.072344022107611372085501 0.029808591432100382118131 -0.009209713677403997059145 -0.009538992497687560911945
314.000000 -0.024290534909494995718937 0.048145872097891749541443 0.073775924339699788800928 0.030764253818588140065859 -0.009620885607736539071877 -0.009901888976606747910791
316.000000 -0.025125214905844031609838 0.047977708133290129788318 0.074726699365759097215545 0.031581797904249295227963 -0.010015470581583552425742 -0.010233031718648883529044
318.000000 -0.025873783572369416644543 0.047500078928266659117341 0.075230561026627035259295 0.032254235303657625977269 -0.010395028435952934076081 -0.010532153700649983171789
320.000000 -0.026524474879759965539883 0.046761735924167366351689 0.075313447547018103067629 0.032762889924722371493004 -0.010766183009256281855048 -0.010802064067679624168039
322.000000 -0.027057915585418042259125 0.045813056393403703281386 0.074994091616400443411905 0.033080029392142752675543 -0.011138981199743637484634 -0.011047263165801398526744
324.000000 -0.027451819978024760704471 0.044704362313940142203972 0.074288677482939435847697 0.033175844404175737489826 -0.011524272941354661223268 -0.011272098200048553603980
326.000000 -0.027688228099475433591214 0.043480879702253089069686 0.073214772182707582581784 0.033026066765034868544237 -0.011930812745026331267439 -0.011479277198506467744243
328.000000 -0.027757298077997708679598 0.042180158810726370299804 0.071791863031798505700998 0.032615367149680878078311 -0.012363523509725493979006 -0.011669255968816041185709
330.000000 -0.027653041587245411753182 0.040835178774870396767316 0.070038868467347317747773 0.031934361572550952479421 -0.012823992575914188937758 -0.011840625473106446835514
332.000000 -0.027364777912887633393169 0.039479531697841359350054 0.067971687741787703562757 0.030974328857546151033686 -0.013312184898432336682683 -0.011990900349295978075115
334.000000 -0.026873647180678895962647 0.038149313295578329841007 0.065604323199860634097114 0.029726720629630394576726 -0.013826804643452140358706 -0.012116377448293963806081
336.000000 -0.026157507009027584216065 0.036881557604629383595451 0.062953768970878024036075 0.028188584368616161068832 -0.014363986905096404536608 -0.012211393055720436151557
338.000000 -0.025200067719940828780967 0.035708755482499458799861 0.060042816356067896244042 0.026367576066277507995661 -0.014917207012155981118995 -0.012269611169030011921244
340.000000 -0.023997199239091861200368 0.034651378860058937303457 0.056898585515168360882132 0.024282933632186306377454 -0.015480088835909722871920 -0.012288797748195511364000
342.000000 -0.022557843029379933547096 0.033715199296808433249151 0.053550540214927180859839 0.021964043125381020604703 -0.016049780813795447298453 -0.012276179800178636802865
344.000000 -0.020904682550658658379827 0.032895192850214097224359 0.050030541246884267791994 0.019449487929146757475563 -0.016626591871995683585839 -0.012248750684243631461912
346.000000 -0.019078589454277893044942 0.032179205303796559745066 0.046373603247790523562699 0.016788008750690315562526 -0.017207974137918705115347 -0.012225134927936837092588
348.000000 -0.017139300564839986956711 0.031551775627327818818380 0.042618498240597733894841 0.014037781663571967383231 -0.017781555648295574445505 -0.012213557371519625713296
350.000000 -0.015154877845041271958171 0.030997375942434835655037 0.038805276287687991143560 0.011258705621080149911206 -0.018324910623608917786820 -0.012206259315402171947151
352.000000 -0.013189447832968654097940 0.030493226538536130632018 0.034966160069704058099838 0.008500066503227364858586 -0.018813184023564164665254 -0.012185261829669280508881
354.000000 -0.011299796227010190999285 0.029995611577255786722729 0.031116246575992628775609 0.005793311725289214744739 -0.019227115501715873191468 -0.012132455361033184573771
356.000000 -0.009534893014231621971577 0.029438901839373393665156 0.027254830119206967936618 0.003155094164699120875411 -0.019555193933106923553922 -0.012034940813348465882271
358.000000 -0.007933502252817274322250 0.028750738681136252944404 0.023376302523360700108546 0.000595981720082610385951 -0.019790939500142948337391 -0.011884286230930449224097
360.000000 -0.006522876966184107047630 0.027870683927586039491109 0.019483331465806410370822 -0.001870695061444870369027 -0.019929117288139869268448 -0.011673582674092646341291
362.000000 -0.005318626257855474728786 0.026763109696383992341939 0.015597639390887131638497 -0.004222323695130017831567 -0.019963675239583356796347 -0.011396491589401071264920
364.000000 -0.004324902100263994415841 0.025419846447467576294743 0.011763277073955200405231 -0.006425554977758090625939 -0.019888153392777448147388 -0.011048999422624701180484
366.000000 -0.003537415866801059665531 0.023848557659750573012314 0.008037218566198800137612 -0.008441663684968703576517 -0.019696604915032542293396 -0.010630242196113862812590
368.000000 -0.002947674807415845942005 0.022058671401205501294562 0.004475321203888305530982 -0.010233869365255731515019 -0.019382956351844896764058 -0.010140548599342706637128
370.000000 -0.002545314676717396872724 0.020062617811827151981241 0.001129989980228425635808 -0.011767837419868054996130 -0.018938507241996010294072 -0.009578821203136515805010
372.000000 -0.002320290344513304629098 0.017887533251279348622820 -0.001941425673508036329334 -0.013006405298590369840062 -0.018349606443315558818030 -0.008941543935459613998140
374.000000 -0.002261339738342067404164 0.015581417908276174941196 -0.004674543513637695497931 -0.013910445892940423440187 -0.017600284218833053134778 -0.008225431638696224442842
376.000000 -0.002345938750217455535940 0.013208247502631668274242 -0.007011051373774937998939 -0.014452569984271487410488 -0.016682228181884199008644 -0.007433861370267589967209
378.000000 -0.002532231019734164194357 0.010836278642865694241126 -0.008916563322050667997343 -0.014632837895745074568987 -0.015604985188066567564080 -0.006582006926970407172106
380.000000 -0.002763598836994962410635 0.008527328830467603357213 -0.010386985576202883638230 -0.014480904746278141018156 -0.014396943922640063895368 -0.005695732735341157114417
382.000000 -0.002978916654881318733933 0.006333204978453015054907 -0.011441502905570461595675 -0.014045395175974995441437 -0.013098165968435996481256 -0.004806131648703429459779
384.000000 -0.003119736662853616303293 0.004297619926319064774523 -0.012111905450008023099606 -0.013381709737221848116606 -0.011752272290206609850483 -0.003944164301667852159938
386.000000 -0.003136311614386456340237 0.002457505610599977283193 -0.012436424599012367228634 -0.012545689098175379777578 -0.010402114175330341022674 -0.003137735261041784112085
388.000000 -0.002994530976121478373086 0.000842045911722605648284 -0.012458263663151177003119 -0.011592891386634681868961 -0.009089224846523398168574 -0.002410821567886525622348
390.000000 -0.002680844909630207464207 -0.000529796348826992919735 -0.012226248647964623253448 -0.010578854135040536427192 -0.007852954086924344989651 -0.001782354092765720985844
392.000000 -0.002204398471472788969411 -0.001651044431309250416773 -0.011792568425526232106515 -0.009554338492980140110089 -0.006725015402997096616855 -0.001263181368648319492440
394.000000 -0.001599773953873339553747 -0.002526130336929314004757 -0.011206335735438372955275 -0.008556623127047434385073 -0.005721924373879045538915 -0.000853002292296943867567
396.000000 -0.000926987879491050510011 -0.003168317436582066427136 -0.010507658451074118610702 -0.007605261941815664832045 -0.004843217721312254205046 -0.000541121425037539871029
398.000000 -0.000261678089404484518366 -0.003595636615224928871876 -0.009725948427064355986116 -0.006705953070173956663547 -0.004077453217965705360715 -0.000311224701895051873192
400.000000 0.000323345124393161300648 -0.003826973900924706805532 -0.008881904363704487895270 -0.005857660805281468888173 -0.003409898835466741110617 -0.000146455811972324507131
402.000000 0.000776919056660347034232 -0.003879282125470815984630 -0.007990474351966134203273 -0.005057648934276807485555 -0.002826886438879154181403 -0.000032174624031446370114
404.000000 0.001079935226855623878889 -0.003766262052275797661549 -0.007063767522327534832682 -0.004303761073306589662879 -0.002316977479506088927197 0.000043366801638673530743
406.000000 0.001242111769621553505824 -0.003499826946350640365091 -0.006113518647847641929172 -0.003595224531510277793389 -0.001870890087646742997937 0.000089360253599849560164
408.000000 0.001289569960693782296746 -0.003096373709475618799664 -0.005154003010699521013238 -0.002933131695421978095417 -0.001481336888774443345460 0.000113088648007007372821
410.000000 0.001251884224367566826250 -0.002587503322211552256316 -0.004206174392801708718237 -0.002321425520376741921669 -0.001143100673144606437351 0.000120630631393001469466
412.000000 0.001154579263308153471226 -0.002026660375928821498925 -0.003300298308740757472629 -0.001767521752950558001916 -0.000853065027726354380318 0.000117336597132784831144
414.000000 0.001018826755878520819165 -0.001480052165042482215096 -0.002473091060625608444273 -0.001281464918314941187419 -0.000609839237021645949079 0.000107774861915686855237
416.000000 0.000864372597512318889892 -0.001003309045097177699957 -0.001758345809748925380953 -0.000873072389742013421111 -0.000412830342668847279954 0.000095199310574876520397
418.000000 0.000709938170047228703924 -0.000624087863509507336998 -0.001177349118005604697301 -0.000548351348810326524354 -0.000260854581275127837044 0.000081360602600246727180
420.000000 0.000570029879021485808531 -0.000343382778615984336074 -0.000734136834391376337863 -0.000306447454148303329892 -0.000150708135360777160331 0.000067031848955281171545
422.000000 0.000451768403393222920620 -0.000147371770883809297039 -0.000416326037493301931783 -0.000138632137716948789950 -0.000076483303030096193536 0.000052740072933388949122
424.000000 0.000355317376764579509387 -0.000018050086072820618720 -0.000200950929289873275480 -0.000030552562981964162992 -0.000030397806387410588344 0.000039095231933279464326
426.000000 0.000277420821048116441124 0.000061406384933707252086 -0.000062687733524286549979 0.000033254914103353798774 -0.000004665197888998245051 0.000026681443600007957679
428.000000 0.000214403750965475351723 0.000104819032808706977819 0.000020432181449851668500 0.000066080656275408153626 0.000007184887405715406112 0.000015920873897370426114
430.000000 0.000163351216152808842658 0.000123322364983377623327 0.000065468034320786762967 0.000078077958422003251285 0.000009967889628657937881 0.000006998808801028609246
432.000000 0.000122050845680254948546 0.000125531932369961715277 0.000085063058930832444854 0.000076727611780455653263 0.000007191193553506241608 -0.000000064326752815390858
434.000000 0.000088625797993968483991 0.000117887834532996369202 0.000088587309324576326360 0.000067644673679818112283 0.000001489577657721129810 -0.000005362334367781471896
436.000000 0.000061550164825873956336 0.000105043761687720034817 0.000082907028956083283306 0.000055059331662181648474 -0.000005147566357722988674 -0.000009090438849609925586
438.000000 0.000039869310385987102017 0.000090495583024784951318 0.000073083750805237051467 0.000042080307679539679961 -0.000011322887708296008717 -0.000011516046665091100640
440.000000 0.000023192793820651675941 0.000076760206616756110906 0.000062521688375151510944 0.000030603401006915748050 -0.000016298823653194610748 -0.000012967930708768395228
442.000000 0.000010993989480443323558 0.000065102282779558139211 0.000052991466552510127855 0.000021388212837830882071 -0.000019884894677015630342 -0.000013728711118509878515
444.000000 0.000002500183484605799682 0.000055764744905652375944 0.000045090660895816009768 0.000014395474365170023799 -0.000022234317286664827804 -0.000014019907671747322553
446.000000 -0.000003223770557156285814 0.000048462065645493636757 0.000038761638008360122659 0.000009268396661743449839 -0.000023598117639753688634 -0.000013995188038056290716
448.000000 -0.000006962986155730200784 0.000042810320994295310868 0.000033782613765236635362 0.000005587080512430840638 -0.000024227204206477899489 -0.000013764106955677425602
450.000000 -0.000009310218325123942635 0.000038397772886172473175 0.000029870326406522745095 0.000003003042050039830190 -0.000024313733312923468738 -0.000013393557620526173454
452.000000 -0.000010687139305720836356 0.000034941031945313368165 0.000026822049588802372190 0.000001251159283182433091 -0.000024013064919798729214 -0.000012940464341139763986
454.000000 -0.000011386059828405583615 0.000032146208257749702504 0.000024379790344863686930 0.000000078025941194380546 -0.000023455049136474957045 -0.000012442304305008326462
456.000000 -0.000011635720059928252672 0.000029859826547888932937 0.000022423367753807273774 -0.000000663096727391530750 -0.000022726904861593733454 -0.000011922582341765650227
458.000000 -0.000011589925733832596807 0.000027933153981488433395 0.000020781025574931918758 -0.000001140146589183954397 -0.000021906348739515550515 -0.000011400647431637509562
460.000000 -0.000011338176631299651207 0.000026278678645675539269 0.000019375044794250452041 -0.000001439773263982519109 -0.000021033310472156993050 -0.000010878014300248585182
462.000000 -0.000011028440779506378273 0.000024747435227183345785 0.000018146272092661710817 -0.000001611361542594959522 -0.000020140206652883834712 -0.000010363327079326510900
464.000000 -0.000010643104765386070026 0.000023407519953398229779 0.000017059292972257081067 -0.000001699560890190910856 -0.000019251622763258797501 -0.000009867892111660217153
466.000000 -0.000010225278759465481753 0.000022195625543891113972 0.000016084597234971208870 -0.000001729876513347756132 -0.000018371437340146672557 -0.000009384439183718328657
468.000000 -0.000009777306751160918472 0.000021014175780368074070 0.000015164499086826614053 -0.000001739799690906366747 -0.000017517643256329345044 -0.000008921253017728931740
470.000000 -0.000009352912425867673790 0.000019907755938244032991 0.000014335499064417288453 -0.000001709064622753302680 -0.000016687116215532421114 -0.000008476832810487015251
472.000000 -0.000008877195816513697919 0.000018911874366727529000 0.000013570852697224917519 -0.000001667526595258073932 -0.000015893783008006084624 -0.000008062738249394308290
474.000000 -0.000008435626833237555895 0.000017946248810056891857 0.000012832610760567141742 -0.000001634134848930114749 -0.000015136744540288848035 -0.000007666370208396789532
476.000000 -0.000008009468545651119166 0.000017011200002990894373 0.000012148200768348068956 -0.000001583232252351876372 -0.000014409102194832596909 -0.000007286095316738145119
478.000000 -0.000007606364687247350608 0.000016148230935048744965 0.000011518359756380446368 -0.000001529891765788010044 -0.000013714037951632036959 -0.000006922830202844377602
480.000000 -0.000007195272945835933392 0.000015329991399511345751 0.000010918826614301387610 -0.000001476728150522571499 -0.000013060615173709995540 -0.000006591633474432776880
482.000000 -0.000006824104340626651585 0.000014538013083674965510 0.000010367058239547849099 -0.000001415134365499047088 -0.000012433774727581135521 -0.000006274441460836167695
484.000000 -0.000006449729774378129125 0.000013852808375700913994 0.000009854923121960332700 -0.000001360772824760807377 -0.000011836879692490875644 -0.000005970000365793216672
486.000000 -0.000006148636896227343533 0.000013163907926009857377 0.000009362199693610042832 -0.000001292757828881112735 -0.000011265731966769507093 -0.000005684501020783818297
488.000000 -0.000005845685019824001877 0.000012478238725229671283 0.000008896536746873539536 -0.000001229650871689543091 -0.000010719101218810016306 -0.000005410183603868860368
490.000000 -0.000005553400283631189813 0.000011917721977371492390 0.000008477978914931105556 -0.000001165719845516037465 -0.000010198841844338508501 -0.000005149135302114126586
492.000000 -0.000005273142425254355117 0.000011399835939358840138 0.000008086068962924101330 -0.000001104178448854881038 -0.000009699824736250245528 -0.000004894273312659643479
494.000000 -0.000005056871480489228138 0.000010879369768673952771 0.000007728370020806441088 -0.000001041396206172289992 -0.000009228597262748759820 -0.000004658244451306532886
496.000000 -0.000004800507945326597641 0.000010400568672753386537 0.000007387624864193688260 -0.000000974542611243305805 -0.000008780566787627401706 -0.000004437559378608718011
498.000000 -0.000004569522523816357336 0.000009870748115542012511 0.000007035278556866201236 -0.000000918919042101441557 -0.000008350818313112536365 -0.000004220420717315560373
500.000000 -0.000004331944608975009472 0.000009405899440747312286 0.000006689540099757751387 -0.000000878108037537290514 -0.000007945343634772908745 -0.000004016483491797351012
502.000000 -0.000004118106123362465607 0.000008908053127314611970 0.000006367623524499724052 -0.000000823506333195008087 -0.000007552473020522001915 -0.000003816136257930931030
504.000000 -0.000003950907144417479057 0.000008462187257554649769 0.000006096544734937972790 -0.000000755831239641123215 -0.000007176041160078731507 -0.000003628126498841505024
506.000000 -0.000003777561993737015367 0.000008089125949670604649 0.000005824650685777067230 -0.000000707169614994932498 -0.000006824839894104023639 -0.000003447605425380407069
508.000000 -0.000003623397777634538840 0.000007692684647251085079 0.000005538698819246696720 -0.000000680428069615146291 -0.000006496924081082390901 -0.000003280501256111488677
510.000000 -0.000003429159374837900174 0.000007310084791939650174 0.000005265558591018994145 -0.000000649388273308104425 -0.000006182261645864137689 -0.000003121383715632418296
512.000000 -0.000003200992557770752902 0.000006963274856482067787 0.000004993513769918483563 -0.000000630346292797413783 -0.000005893179862421906869 -0.000002978946418488675760
514.000000 -0.000003044011145511265781 0.000006683178209595577520 0.000004767022731013429529 -0.000000593847520547061037 -0.000005608664494768186390 -0.000002838980357602032531
516.000000 -0.000002924786618994683377 0.000006387992788194129963 0.000004579675993656604708 -0.000000536908421572432752 -0.000005324934612880558748 -0.000002693297323464428840
518.000000 -0.000002843867478218141448 0.000006015270726257147910 0.000004364727173339171584 -0.000000499503606264356439 -0.000005059537389945383219 -0.000002555714636098701032
520.000000 -0.000002743692072471040235 0.000005747760044237495075 0.000004172461407068494204 -0.000000469459591982734264 -0.000004816525238524641866 -0.000002433907946413224945
522.000000 -0.000002588681976334197416 0.000005487588454605640022 0.000003973427991532094600 -0.000000448694282783638988 -0.000004588005483245861093 -0.000002323646000130269936
524.000000 -0.000002433316139953293499 0.000005230179708701515227 0.000003803170579685862447 -0.000000418518255211587706 -0.000004369873059471646658 -0.000002218155395895661826
526.000000 -0.000002288747329719502240 0.000004989666330569667244 0.000003638749014715124631 -0.000000380109159252154297 -0.000004152242738522608796 -0.000002106496276042591477
528.000000 -0.000002153776387100689377 0.000004765122088185752624 0.000003481613050285834609 -0.000000341902835830465166 -0.000003948633311962656341 -0.000002006383419519859336
530.000000 -0.000002057160343476385523 0.000004547418738802865969 0.000003337392274836756048 -0.000000310107061212288369 -0.000003758427197026415744 -0.000001914141733585736517
532.000000 -0.000001975039444810381491 0.000004350812161548043324 0.000003192225148647318533 -0.000000289709500024343943 -0.000003581639764981242750 -0.000001827302533717600001
534.000000 -0.000001862590262899224578 0.000004163811378532029265 0.000003058962962646358098 -0.000000262524754951175527 -0.000003407438927783000270 -0.000001739352604434076689
536.000000 -0.000001774796183283158622 0.000003965447596188389065 0.000002939461328837470671 -0.000000235179421968937806 -0.000003243419827088477432 -0.000001658862975738560596
538.000000 -0.000001777672754840945103 0.000003741452560788204343 0.000002818725043973908431 -0.000000204859896168789304 -0.000003079407942557716049 -0.000001570083509627385669
540.000000 -0.000001703173344823306844 0.000003513396041418621933 0.000002671061472855945570 -0.000000200150243003909914 -0.000002937632609994467147 -0.000001498342015202794047
542.000000 -0.000001616156810017739738 0.000003301146629213119515 0.000002539566557496271019 -0.000000195251847695427398 -0.000002802982615804194077 -0.000001432504351072664472
544.000000 -0.000001549970581180010269 0.000003131812831158175657 0.000002427757342872079628 -0.000000184394199520802612 -0.000002669910312900084504 -0.000001363916824480765968
546.000000 -0.000001477453605191024762 0.000003021793719826934337 0.000002331991084872505055 -0.000000163920458953894434 -0.000002540278065976063172 -0.000001297579981607224566
548.000000 -0.000001375446523690521466 0.000002936614138910584782 0.000002225051371558932034 -0.000000160193219154436669 -0.000002421809802768615089 -0.000001238079477847637346
550.000000 -0.000001308946561956765110 0.000002847330255279563216 0.000002139688358563015961 -0.000000145898466854158556 -0.000002307487048276323704 -0.000001179954915316716594
552.000000 -0.000001286761046995386161 0.000002639021175983059560 0.000002016817196924293810 -0.000000143269982286767318 -0.000002197663012351113176 -0.000001121686232041416547
554.000000 -0.000001250314570417245715 0.000002492979866829253848 0.000001926853170459474594 -0.000000128573319198380981 -0.000002089612643909206953 -0.000001067647807294110850
556.000000 -0.000001134445683714721856 0.000002403833104927715359 0.000001819805811176723829 -0.000000139091122143375497 -0.000002000295581749482805 -0.000001024008448568146083
558.000000 -0.000001082644816185856775 0.000002262151308138928329 0.000001720490327875730891 -0.000000139883695593621960 -0.000001908784367249152606 -0.000000980284105669556889
560.000000 -0.000001062896035622102645 0.000002176196334672253265 0.000001666205430307652565 -0.000000120439604699992294 -0.000001817595170923788981 -0.000000936287094289763534
562.000000 -0.000001039044038759155187 0.000002088395618057196084 0.000001606316474738091614 -0.000000104434309384495813 -0.000001730536588276655725 -0.000000894828344062241888
564.000000 -0.000000972233954167185366 0.000001999097689263381965 0.000001547226387824861107 -0.000000092483615839553027 -0.000001649621030241851731 -0.000000853115537986383911
565.560000 -0.000000914292326150648181 0.000001899689013619697410 0.000001460722408522080212 -0.000000104294865186784749 -0.000001589639235481015098 -0.000000817815096350481321
