0.000000 -0.000000000000000000000000 -0.000000000000000000000000 -0.000000000000000000000000 -0.000000000000000000000000 -0.000000000000000000000000 -0.000000000000000000000000
2.000000 0.000236316866505657162617 -0.005778501747628011706026 -0.004681440023213491279097 -0.002099175227743394888530 -0.000384890837505249216142 -0.000039277689928694494098
4.000000 0.001060119598433687578692 -0.006937315725426518656094 -0.007394118444074140178435 -0.003536402087306386200771 -0.000399281366329708024311 0.000127882358765547468745
6.000000 0.000932637208779102020416 -0.008916340971163104825448 -0.009909121896230515050275 -0.004336572134845368721445 -0.000276662364828082459403 0.000308803387214479465369
8.000000 0.001173687502807337079691 -0.010709117484428997552071 -0.012337813063859304554826 -0.004861895528765945717620 -0.000088185305372722792264 0.000501233688602585993402
10.000000 0.002180899790545797259367 -0.012658342051177114140348 -0.015418096369375040161076 -0.005554307061915368312621 0.000157796732742641795380 0.000731857537761204852457
12.000000 0.003187497278927773312895 -0.017901745143095296186608 -0.021651922121722615155459 -0.007067704476160327486944 0.000352853089457517271870 0.000996650437755313518481
14.000000 0.004912404001671296337184 -0.023307993780836117059252 -0.029068651873192425522108 -0.009355411358315824169041 0.000546505130490107841022 0.001322530871195722913802
16.000000 0.007065681999768089367742 -0.030717222786439273701786 -0.039735196283311263742988 -0.012848088885510162288073 0.000766931239120358272665 0.001776542606032122800785
18.000000 0.009798694873185609041655 -0.039979712508220542621640 -0.053120348079024298781903 -0.017430457721331137077581 0.001114386865527242521240 0.002426377227747132745567
20.000000 0.011912003991810452344091 -0.048902294413674676776260 -0.064850217034217894074288 -0.021314175623995363501040 0.001803194182577114819052 0.003330936643363659709072
22.000000 0.014281968335113515849999 -0.057016614423511802201006 -0.076040464985577843615161 -0.025099130190691754799248 0.002535618746806407412808 0.004247006069750420935438
24.000000 0.016702713811551257727661 -0.062544364127575524658909 -0.084508374537173608365137 -0.028301082225616124715684 0.003353899088041604852062 0.005193337686347581326485
26.000000 0.018754484922447529904321 -0.066918704515769603102804 -0.091606903450600574156937 -0.031360111622286815369343 0.004429653324958983742765 0.006477713755686257887656
28.000000 0.020237972517700555941111 -0.069716891950947740275168 -0.096330282082260090814607 -0.033986722166434384095890 0.005197186830386082284639 0.007465485371902426392499
30.000000 0.021665886060496849369050 -0.070647601355557324009915 -0.099843672852623077673684 -0.036578799563586048004815 0.005939764568723059252886 0.008462318061367197705169
32.000000 0.022958190853636258749182 -0.072242387785163342250883 -0.103149479646003780497487 -0.039155606333637620053434 0.006450184933900574360544 0.009180718382131343099917
34.000000 0.024737210901039669019852 -0.072524555786240077481786 -0.105979066746671471421770 -0.042228356163335131756575 0.006843560245058437352395 0.009903933672492174974944
36.000000 0.026465052528635922557410 -0.073032594998550914855429 -0.107992072216622339575487 -0.045126073139647920884343 0.007151117344597998810862 0.010440342798421714184953
38.000000 0.029151298259735416301686 -0.074152127349370738906842 -0.111254265078570530045354 -0.049454282543199439003967 0.006829642104496048450601 0.010517575173899861018523
40.000000 0.031931311189726876986761 -0.072219887302292576358731 -0.112460841992582119552857 -0.053568689065061840526294 0.006469939788519738291250 0.010597157935610477391686
42.000000 0.034187880153504018876376 -0.072511149967977958641363 -0.114654936582829894420321 -0.057579796896836545061493 0.006348815453494058985706 0.010922083221283301543436
44.000000 0.036902380087744532377592 -0.069783144013561018703662 -0.114569118360256391730978 -0.061193561762181755692147 0.006085310709079007340794 0.011036934228539449498463
46.000000 0.039317736826981058984032 -0.069411314004039825764636 -0.115337790174285720334879 -0.063834152919459083430631 0.006334016148935322013114 0.011472367599432717680252
48.000000 0.040449758610427502536488 -0.067255016340452528078586 -0.114285022310494741026865 -0.065363761609242995720415 0.006949674499792382262320 0.012081435706823753784001
50.000000 0.043373793672109105246104 -0.064993689254306361013924 -0.113981033778667042999366 -0.067679116358500365779882 0.007194209552785368715078 0.012384358656998467607124
52.000000 0.045623198459621414069254 -0.062038305245559345613149 -0.112144983613260904031783 -0.069201841374694317288174 0.007727860172317927746344 0.012909199012810549170305
54.000000 0.047353547204199458731111 -0.060508687249949864861431 -0.111503517017664810495603 -0.070540403650003788427192 0.008520988174184613087037 0.013732470966112818311355
56.000000 0.049450711221430562747337 -0.055244395754877662074733 -0.107297741599872056839082 -0.069824230852641194777775 0.009659190416312414886879 0.014555702043483602359242
58.000000 0.051612568617697307526981 -0.052606970350966182625729 -0.105148324368098955439166 -0.069739986205848314426703 0.010277931759501564637493 0.014963947035649146841130
60.000000 0.052949377114083553963475 -0.048698042600271350399677 -0.101009784679308975419154 -0.068055812736180984479084 0.010888775051663295012627 0.015053157240290718915654
62.000000 0.055028949136344970649581 -0.043906420959924523372830 -0.097140633093038733503199 -0.066528463508973720297313 0.010988461812083485241720 0.014457238133450263720126
64.000000 0.053721635181658317081954 -0.041867495391456642506167 -0.093776694186601963765249 -0.064163811891471772552720 0.011400128678769020848516 0.014045629758652448601519
66.000000 0.046892565393055675448952 -0.045975474885056329121813 -0.093057019348567054928267 -0.060348881788726563280001 0.012407905353079567642438 0.013865376136936960471679
68.000000 0.040727678382291930547776 -0.046850322704884310442974 -0.089507983074313637872343 -0.054294075595140434131736 0.014428395675474429971086 0.014429014515036767130063
70.000000 0.035274813654426057096813 -0.046019074001513449179157 -0.084963196975730348459166 -0.049089752667237931960109 0.016564872137622550091196 0.015512022815037260214943
72.000000 0.031885160760006379943032 -0.045833860239948211179328 -0.080356082028311764942075 -0.043760039897522896856774 0.018918438258207919550058 0.016929224376905516874503
74.000000 0.025210830891811066012398 -0.047210917537070948291067 -0.076232325572301209981596 -0.038739334161091973363078 0.021305262017384599126935 0.018489859386869339497039
76.000000 0.019566003956073951125516 -0.052680296987915660456014 -0.074673557017487790510302 -0.035296239986655583709130 0.022774521435448051576156 0.019373449329337717739197
78.000000 0.011480823242099966186025 -0.059194266216144902914564 -0.071643509129645552291343 -0.029451329387195229053686 0.024868042799857274088859 0.020429900973006499126372
80.000000 0.004560212500985923872454 -0.067276775726702472968377 -0.069817301236253459517656 -0.023747670523586499047308 0.027737239488839271484011 0.022665721086528822086903
82.000000 -0.001689595563197579617537 -0.072085699806231195996276 -0.065908157802035322037071 -0.017693880886691937259769 0.030105369325901028265680 0.024184571778289341154045
84.000000 -0.005710187584188447865174 -0.076828465495064071633102 -0.062238760711522615742819 -0.011701391969256581468417 0.032061667061661601463296 0.025203441800440738035372
86.000000 -0.008838882250584413624583 -0.076766993149099002624602 -0.054090449013619923412932 -0.003941754676842578949958 0.033938883917270720735893 0.025877337713467236934850
88.000000 -0.010573821748397283989962 -0.076693220591859789792011 -0.046649011035443714578985 0.003720762571732836709176 0.035644486274136882864028 0.026359933475150521681174
90.000000 -0.009418383454089561748757 -0.074863041268957125629058 -0.039019385855322087641728 0.009989757266435002683314 0.036609977775997747106995 0.026265996471971541498247
92.000000 -0.009649003127515579439355 -0.073665287090212069887052 -0.032345304442357059038216 0.015422926887002986681696 0.037282026279747582098167 0.025979941976173655249216
94.000000 -0.008370930763568611501779 -0.067731858935791103282220 -0.022572740098168855849003 0.021675261197966238374546 0.037996566893967749500849 0.025613819924607927891458
96.000000 -0.006256179626734861658199 -0.062157314638893047809010 -0.013815940957680423323284 0.027225588233394704823498 0.038398551865047141073983 0.025002490443598111846679
98.000000 -0.004025867520917681199877 -0.054006215341374730343205 -0.004512728357477751098270 0.031331920723745812495942 0.037834494760273368330061 0.023757845699530440175540
100.000000 -0.001894896394560066556906 -0.045328887760293277986445 0.004219376524154687044255 0.033916775887863501171005 0.036138727505846512944032 0.021798417459955175129460
102.000000 0.001159140672847621279101 -0.036159487962814776396137 0.011342220687855505273367 0.034614543998290184245725 0.033684160391314055260636 0.019466390420224358864809
104.000000 0.005037278255826029699227 -0.027936425577238969270022 0.016968595633850457743419 0.034096777353962499923501 0.030484267901317124022098 0.016688384186123388086553
106.000000 0.009798323130825983134917 -0.019418639737507153997242 0.022066715649932129583721 0.032897898758187077428161 0.026767674645802732452671 0.013678740418758574687308
108.000000 0.012806524497926260672265 -0.011593760293875373518224 0.025862307417337474652053 0.030951782611312327747610 0.022898933928172892499076 0.010717120089569584506783
110.000000 0.013155540097694326875932 -0.006033976434399190152957 0.027778340460741984818682 0.028313257766189772746124 0.019215725026507052969338 0.008179232094214840612101
112.000000 0.013437616834736845067289 -0.000740833867887681412831 0.028871432078743770877072 0.025987287102092335860926 0.016354943271995964204635 0.006296850389515964291354
114.000000 0.013058697036344020861454 0.003661186251277363801204 0.029422785358459008914211 0.023974286926223487698140 0.014040019516284156855801 0.004878223966855410945187
116.000000 0.010408534662773716653050 0.006828872763528366120200 0.029410402177601352446956 0.022643039823095685580956 0.012611912608579299230338 0.004130089004214688476468
118.000000 0.004051046833144039856223 0.009167307731759496286505 0.029215700179678578268794 0.021550333409121654598684 0.011362268847076278932562 0.003565731971905726407218
120.000000 -0.001254655218647645264704 0.011462245874355096383890 0.029163436040818065120295 0.020642193971811606534317 0.010304448570115760930310 0.003130237202190649763167
122.000000 -0.005995048744413984664892 0.012335019059913607947232 0.028510919703167408867373 0.019588712979055174917553 0.009264051203121690183928 0.002715503631186610977721
124.000000 -0.009882847487589213955617 0.013637812499780885971967 0.027974492804331233669624 0.018387090319347269146144 0.008121798569022602859446 0.002261221229851108523168
126.000000 -0.010500628056597773041236 0.013832287790911548461259 0.026697741977890446229971 0.016969364730434501747913 0.007046610736372753598655 0.001828374508803439282834
128.000000 -0.009383989716793481039581 0.014218780974884697582139 0.025114513259451388960120 0.015227767341553328714343 0.005824435129653131315575 0.001310577349270320834246
130.000000 -0.008303653340411460553883 0.013860274672925342737129 0.023013538437973025951866 0.013504522525799244128675 0.004745518929346077309506 0.000904714461812828360347
132.000000 -0.007126484672483284106559 0.012932624844830327426326 0.020648796287634208629358 0.011701190113137065890170 0.003655007076092280093871 0.000496535170935251510445
134.000000 -0.006161601111829024396416 0.010823908555645153292679 0.017581332789232118757328 0.009872355477130799472629 0.002658644591433298107197 0.000161119480351447488331
136.000000 -0.005348632559519823567729 0.007495551360188934704454 0.013659872295283871992955 0.007781128404681294553902 0.001619517805770061789905 -0.000151858905779304203826
138.000000 -0.004597263203967050584908 0.005261538530830438264996 0.010674292589738119604870 0.006034524091163519753100 0.000782869049294480012433 -0.000411017871720288196623
140.000000 -0.003686034928538782680374 0.004453220471250405806951 0.008630602405505885185710 0.004515913158256742651608 0.000053550950261403602859 -0.000663955924939679462127
142.000000 -0.002830712636461095183665 0.004153701107542811556128 0.007030602270165999326257 0.003257067136487012438961 -0.000530992519677164027600 -0.000863830528399371893461
144.000000 -0.002268782630263132052417 0.003922784088105299438176 0.005884030271462461179899 0.002413342386559244427680 -0.000927471006797410207033 -0.000999864187427729200763
146.000000 -0.001998778746607992543721 0.003667736058786016852679 0.005093985907885758418479 0.001877509081961451810339 -0.001145556271963730880781 -0.001049274752068406896255
148.000000 -0.002004505309252068139675 0.003846602058444882361182 0.005241800382161769696066 0.001963031765286953229943 -0.001145231523822784654165 -0.001051140738040728895772
150.000000 -0.001979425695063821970948 0.003991485949741822858439 0.005339509825734400222386 0.002019164533868307142422 -0.001148705549051646243944 -0.001047849751274615871105
152.000000 -0.001932450267497837085098 0.004123023820539828757092 0.005419176436379127652365 0.002071131460680559598780 -0.001144188411903789264618 -0.001033369258335655295825
154.000000 -0.001896454140805158439936 0.004213812675852864932102 0.005461271840101263909395 0.002096111142158274629615 -0.001160560647586169301382 -0.001042802572052555724197
156.000000 -0.001890192983649004220340 0.004263357812365670129751 0.005474226994078539541844 0.002111418207969130954316 -0.001173832121804947292015 -0.001047744965306091112847
158.000000 -0.001941190129064341001602 0.004258178334293266295574 0.005453776796946165766888 0.002123645469847894057952 -0.001177442545208341696458 -0.001043418532823624147315
160.000000 -0.001856677205092617738771 0.004365974818066254391213 0.005514960151646797724412 0.002151222410617294016066 -0.001197723876208718141526 -0.001064347674377681294763
162.000000 -0.001778762407852583441598 0.004465409790653023132390 0.005571875362105170939597 0.002166695746976137360723 -0.001223907456362284323567 -0.001086829877253282046132
164.000000 -0.001733691711648945813634 0.004540030410985332158524 0.005617116772042362454753 0.002178818438108809981552 -0.001244256356974245310287 -0.001099332555434895082949
166.000000 -0.001722527174365598087724 0.004587234115040817947206 0.005647204437270196032694 0.002181963617533635210050 -0.001267025243353255047410 -0.001112143091735759078964
168.000000 -0.001732641013720745718982 0.004618941120151271416405 0.005670626487441742143158 0.002179400201247100321567 -0.001292937190173645573693 -0.001127324271230164924595
170.000000 -0.001744046942062684336233 0.004655998005024328777191 0.005704516801341513732027 0.002183766866184998906020 -0.001315909212544799124223 -0.001141570694977138943071
172.000000 -0.001757164810465884369900 0.004697943017190434403241 0.005747905211430669181194 0.002194195510976734361797 -0.001336584896376447062494 -0.001155238488942680885607
174.000000 -0.001772147080229081149427 0.004744463379021192882268 0.005799958542270340633440 0.002209930099146654568915 -0.001355489627323409451004 -0.001168563283692313197609
176.000000 -0.001789072408506715491927 0.004795269075579192651071 0.005859921980877203818994 0.002230308594042368537658 -0.001373074392538864863661 -0.001181735949320648513747
178.000000 -0.001807974418803551686780 0.004850120996731739110575 0.005927144894603140340417 0.002254763803115554868239 -0.001389724774277304548617 -0.001194915891543843261199
180.000000 -0.001828868342904722181855 0.004908832487378233383479 0.006001102559712533611458 0.002282839492197406578572 -0.001405762025060764948761 -0.001208235302937360738235
182.000000 -0.001851747467650613704696 0.004971291389899697675536 0.006081401740090999069599 0.002314179072539748055481 -0.001421452440420528737924 -0.001221805169637614138511
184.000000 -0.001876594405426109659837 0.005037451510823352449076 0.006167772748970058900586 0.002348517521511314220389 -0.001437015241376483724867 -0.001235719396325323394398
186.000000 -0.001903397359386535319867 0.005107319328420658645362 0.006260056733419900286408 0.002385672690577260012662 -0.001452628513105849337658 -0.001250057619806164239604
188.000000 -0.001932150000755374812458 0.005180961067404034163519 0.006358197407146250201837 0.002425529332468874098988 -0.001468440246019017984477 -0.001264890056227741498007
190.000000 -0.001962850864888643267342 0.005258487101401639746134 0.006462222463009847581161 0.002468029014329214086698 -0.001484573611095416339339 -0.001280280015912099288861
192.000000 -0.001995515692088842621410 0.005340047518311454195772 0.006572237545435445811581 0.002513164073215423330310 -0.001501130772049035855611 -0.001296284242573569932613
194.000000 -0.002030176051426428075752 0.005425826946818163715180 0.006688413960617751834181 0.002560964259368489134849 -0.001518201916640705886191 -0.001312958308233956724806
196.000000 -0.002066879150731596673923 0.005516037250163279524739 0.006810979614057194840571 0.002611494826435277211846 -0.001535865861848426149397 -0.001330355506938178363277
198.000000 -0.002105686613543330133053 0.005610930257159018122448 0.006940221723195424442798 0.002664850737030419192131 -0.001554194262390630985882 -0.001348528977164436051805
200.000000 -0.002146681570248490031338 0.005710773341459030906508 0.007076471650058797566163 0.002721153229369834350426 -0.001573253670416723589559 -0.001367532252352296256656
202.000000 -0.002189954444722764723141 0.005815866742683427174920 0.007220108300744367164914 0.002780544482266551157418 -0.001593109122662625604452 -0.001387421496221722576683
204.000000 -0.002235620503330976085316 0.005926540199046067061706 0.007371558961345729861503 0.002843190676353687246225 -0.001613823679523315778386 -0.001408254244454577733606
206.000000 -0.002283807266147735472173 0.006043147522076564720495 0.007531295828852993534674 0.002909280643963999078011 -0.001635459773604827464488 -0.001430090960403176221158
208.000000 -0.002334657487256576631485 0.006166073083364460513667 0.007699833504563839171875 0.002979020844086701334807 -0.001658081676663124021803 -0.001452995424291835067226
210.000000 -0.002388329676513712904184 0.006295732487888903820827 0.007877736387322765640451 0.003052638495315547571135 -0.001681757111474204520116 -0.001477036748337947963047
212.000000 -0.002445002330385178789668 0.006432573720783317169913 0.008065616413891602692887 0.003130383512944571837433 -0.001706554825859117737949 -0.001502287036565587733869
214.000000 -0.002504867398482706064566 0.006577073224848658042352 0.008264132064858306647714 0.003212526509003410437465 -0.001732547220462039979857 -0.001528823110435027126178
216.000000 -0.002568135408805562788087 0.006729746898503401013325 0.008473997053629923892348 0.003299359999544902981999 -0.001759812194087653205651 -0.001556728487500006353345
218.000000 -0.002635031659362670284491 0.006891151920201581473902 0.008695979602064581731602 0.003391200236202316850576 -0.001788431286007630821588 -0.001586091480107582572801
220.000000 -0.002705808678453026916433 0.007061872987169269359764 0.008930899332640242563319 0.003488387097610418791094 -0.001818491190942105647371 -0.001617006220882443237596
222.000000 -0.002780733854392281826501 0.007242543904244236503687 0.009179640068250883438994 0.003591286670204397145356 -0.001850085219378027256640 -0.001649574544353458582097
224.000000 -0.002860094552276554440845 0.007433837720255461606333 0.009443144964079561512471 0.003700292919091172083590 -0.001883311592887049060532 -0.001683904202801420578461
226.000000 -0.002944202006377012563465 0.007636468493522873164647 0.009722417353721854449411 0.003815824978679002634635 -0.001918276905416399849558 -0.001720111673106746418005
228.000000 -0.003033389497245364292005 0.007851196080349166078749 0.010018526131296102282819 0.003938331554834304144841 -0.001955094274324054460373 -0.001758320511334007969773
230.000000 -0.003128014475198893831059 0.008078819064409532499371 0.010332601351027590960707 0.004068290304586589037350 -0.001993884168560457713359 -0.001798662466159625791459
232.000000 -0.003228458077778507614997 0.008320185614038374741219 0.010665841001191710482598 0.004206208850387279166161 -0.002034776009500874772301 -0.001841278379380495997322
234.000000 -0.003335130333449059115286 0.008576181648221955708400 0.011019505057813549706025 0.004352624285209779654571 -0.002077907576677447045593 -0.001886317771729065836256
236.000000 -0.003448466502563731807263 0.008847750668536909571249 0.011394928473024947684911 0.004508105626491911398224 -0.002123427211587768786982 -0.001933940687559979748622
238.000000 -0.003568933910956187047225 0.009135883234802341656966 0.011793519732080370854277 0.004673256241717794849666 -0.002171491732669397593802 -0.001984315961737205015469
240.000000 -0.003697037419099889581087 0.009441639930185458107204 0.012216779348469939195376 0.004848715534667219322074 -0.002222270343576596141055 -0.002037624534572923720027
242.000000 -0.003833316221707704953003 0.009766165899443528600199 0.012666315884622879328614 0.005035162752268622539387 -0.002275944681996533262847 -0.002094059715092137091697
244.000000 -0.003978362194417859459827 0.010110720052902893995039 0.013143884750810814338040 0.005233329917285235721724 -0.002332710028326148276462 -0.002153828897918872928297
246.000000 -0.004132826729737917696716 0.010476708911850282288092 0.013651430146634358289703 0.005444010573867751924537 -0.002392778769276260233262 -0.002217156830414609546692
248.000000 -0.004297427364831941931644 0.010865755356470966838667 0.014191157013789638952073 0.005668080966456813703236 -0.002456382021487579954411 -0.002284288690321073511669
250.000000 -0.004472975582592653501224 0.011279750790086404133028 0.014765611600664948002692 0.005906524669747914048357 -0.002523774273133210822861 -0.002355495640554015196466
252.000000 -0.004660387062296944722661 0.011720937813164184274073 0.015377777764766122417517 0.006160462532369563593004 -0.002595237050201705010510 -0.002431079800974222764054
254.000000 -0.004860705403002494977283 0.012191979301865643950387 0.016031175559383485651477 0.006431188449395281413190 -0.002671084560403897550929 -0.002511382154470805441737
256.000000 -0.005075117112364128067747 0.012696017857349275320678 0.016729947649660559944040 0.006720202044428244710084 -0.002751668597836601053153 -0.002596788642423478610938
258.000000 -0.005304963562357600803665 0.013236692165042928531760 0.017478905302319828335422 0.007029236310898853874740 -0.002837384760776408103300 -0.002687737920756594171834
260.000000 -0.005551746092255781771241 0.013818112472059851728035 0.018283521794960993361867 0.007360274576424799368446 -0.002928675194984944798321 -0.002784725085227863008996
262.000000 -0.005817107722592095714331 0.014444742438919402557906 0.019149822113031116088688 0.007715538827112354385018 -0.003026032431206259181583 -0.002888304077070888258028
264.000000 -0.006102812762045634054076 0.015121185853071622551269 0.020084161707994502982233 0.008097453301210593909487 -0.003129996469193348576643 -0.002999083021239805531277
266.000000 -0.006410697829005601068586 0.015851863531153718989142 0.021092865943986321974890 0.008508562903959872997239 -0.003241150294247173001966 -0.003117714028688203884571
268.000000 -0.006742621192067292483496 0.016640627246164968466857 0.022181769033635442139873 0.008951417119159825810937 -0.003360107969571169209133 -0.003244874608102671972171
270.000000 -0.007100393819904806357035 0.017490328164776459268781 0.023355681670625284135356 0.009428420694758916920097 -0.003487499118242965139708 -0.003381242790847911478674
272.000000 -0.007485730116966115947619 0.018402441369698152584533 0.024617896194752332539313 0.009941680284474218101676 -0.003623948867431345602363 -0.003527468225061670004800
274.000000 -0.007900210990134397606721 0.019376869821880644828571 0.025969867344218126870015 0.010492884437554075502397 -0.003770053182455027854930 -0.003684141261673046230385
276.000000 -0.008345282387459709155797 0.020412048566760737644543 0.027411219150403374339442 0.011083257385991562501970 -0.003926356291704603818093 -0.003851769092465001480263
278.000000 -0.008822308036646572121375 0.021505365216114687154647 0.028940147831124526239810 0.011713623442530192442224 -0.004093334943199765374455 -0.004030765944785345833434
280.000000 -0.009332672068550287164390 0.022653935128875903048939 0.030554239200124348047050 0.012384573029458863582808 -0.004271400977138944260458 -0.004221465165106767433723
282.000000 -0.009877941625692087876387 0.023855583659411021962837 0.032251593056928748448620 0.013096713549327147416146 -0.004460927209151465192005 -0.004424156906067039374264
284.000000 -0.010460074429602145285045 0.025109987907703322507214 0.034032167404991285619698 0.013850966998168423929827 -0.004662307243965800769570 -0.004639157035035298970449
286.000000 -0.011081649066111009735436 0.026419876347232806867993 0.035899227116458223840745 0.014648890221299304750802 -0.004876042642031137158698 -0.004866900374152697064667
288.000000 -0.011746098100666901853373 0.027792270137753590647511 0.037860863446806440613113 0.015493024650908208614264 -0.005102847681739532646750 -0.005108051436742504745891
290.000000 -0.012457869787410381576254 0.029239731705089245378248 0.039931543451729827054475 0.016387311081614560487330 -0.005343747902496916862836 -0.005363615923217292941194
292.000000 -0.013222397746709949398203 0.030781446534063311437635 0.042133545540222736014435 0.017337638092801341965776 -0.005600120221346455151590 -0.005635017385035192075127
294.000000 -0.014045555333757555813157 0.032443370187939434001745 0.044497544815833310616338 0.018352519235154816923394 -0.005873593499180188373665 -0.005924076185290456063315
296.000000 -0.014932234030238460131823 0.034255204659843149772591 0.047060208008083720399028 0.019443531247739606615532 -0.006165739759176542753027 -0.006232808206870438585967
298.000000 -0.015884230610716622289491 0.036239281140111628820577 0.049853870132882283083831 0.020623993575837468172907 -0.006477717557443180181054 -0.006563049626711960592151
300.000000 -0.016898780299114735115040 0.038386319823305939391567 0.052882309500397912949143 0.021903077355957766697570 -0.006810334382442296934090 -0.006916036544075687686473
302.000000 -0.017968147417395219367364 0.040624401337455637306384 0.056085188218205475618738 0.023274168713059675134280 -0.007164601577907787205435 -0.007291897296912502705879
304.000000 -0.019078127729917175592345 0.042806292673718500385593 0.059312808205755726542741 0.024702894784499322688998 -0.007541741950011350212324 -0.007688726132457950751542
306.000000 -0.020204983414943981229195 0.044743804531656349021684 0.062346676987362278921090 0.026127613248344679075519 -0.007941516106698869384428 -0.008101443031379823925264
308.000000 -0.021316324670033633820188 0.046281125989687747768198 0.064974954733433745723836 0.027480388227235887782518 -0.008359490063813883667376 -0.008521420192348975325425
310.000000 -0.022380034023880873012002 0.047348272468761248843450 0.067067600091873860734815 0.028713632867845551716046 -0.008786129636137691295561 -0.008937661464387300705448
312.000000 -0.023374488068774994936616 0.047954106731493188753301 0.068590850639796197008025 0.029808591432100382118131 -0.009209713677403997059145 -0.009339333348780972862690
314.000000 -0.024290534909494995718937 0.048145872097891749541443 0.069571777615096350166901 0.030764253818588140065859 -0.009620885607736539071877 -0.009718321588749669059926
316.000000 -0.025125214905844031609838 0.047977708133290129788318 0.070058416862549946491079 0.031581797904249295227963 -0.010015470581583552425742 -0.010070494371517010878669
318.000000 -0.025873783572369416644543 0.047500078928266659117341 0.070097739491358918018094 0.032254235303657625977269 -0.010395028435952934076081 -0.010395703211141317165445
320.000000 -0.026524474879759965539883 0.046761735924167366351689 0.069729667982827800432055 0.032762889924722371493004 -0.010766183009256281855048 -0.010697134128923393298072
322.000000 -0.027057915585418042259125 0.045813056393403703281386 0.068988739382702946034698 0.033080029392142752675543 -0.011138981199743637484634 -0.010980029640438209934117
324.000000 -0.027451819978024760704471 0.044704362313940142203972 0.067907047762725589179489 0.033175844404175737489826 -0.011524272941354661223268 -0.011249890924036325123847
326.000000 -0.027688228099475433591214 0.043480879702253089069686 0.066515688372636688763251 0.033026066765034868544237 -0.011930812745026331267439 -0.011510768132777503616748
328.000000 -0.027757298077997708679598 0.042180158810726370299804 0.064844456877233724867438 0.032615367149680878078311 -0.012363523509725493979006 -0.011764343711586706248129
330.000000 -0.027653041587245411753182 0.040835178774870396767316 0.062921123584786645133171 0.031934361572550952479421 -0.012823992575914188937758 -0.012010235765404948804491
332.000000 -0.027364777912887633393169 0.039479531697841359350054 0.060771306559041143868782 0.030974328857546151033686 -0.013312184898432336682683 -0.012246917502126893409486
334.000000 -0.026873647180678895962647 0.038149313295578329841007 0.058419465881358399739209 0.029726720629630394576726 -0.013826804643452140358706 -0.012471737935524012524935
336.000000 -0.026157507009027584216065 0.036881557604629383595451 0.055891193069565206497096 0.028188584368616161068832 -0.014363986905096404536608 -0.012680140756705659405013
338.000000 -0.025200067719940828780967 0.035708755482499458799861 0.053213287668126330043350 0.026367576066277507995661 -0.014917207012155981118995 -0.012866454631728472743357
340.000000 -0.023997199239091861200368 0.034651378860058937303457 0.050410894811009840377203 0.024282933632186306377454 -0.015480088835909722871920 -0.013027611255759284983324
342.000000 -0.022557843029379933547096 0.033715199296808433249151 0.047505817109553045984871 0.021964043125381020604703 -0.016049780813795447298453 -0.013167367389224140031279
344.000000 -0.020904682550658658379827 0.032895192850214097224359 0.044517943893953026979204 0.019449487929146757475563 -0.016626591871995683585839 -0.013296322950020275296956
346.000000 -0.019078589454277893044942 0.032179205303796559745066 0.041466750397998186628001 0.016788008750690315562526 -0.017207974137918705115347 -0.013425144726562976416062
348.000000 -0.017139300564839986956711 0.031551775627327818818380 0.038372844718583903889098 0.014037781663571967383231 -0.017781555648295574445505 -0.013555254946034227606089
350.000000 -0.015154877845041271958171 0.030997375942434835655037 0.035258008997806955520105 0.011258705621080149911206 -0.018324910623608917786820 -0.013675512126135502127822
352.000000 -0.013189447832968654097940 0.030493226538536130632018 0.032138351206813998983680 0.008500066503227364858586 -0.018813184023564164665254 -0.013767980000646299829081
354.000000 -0.011299796227010190999285 0.029995611577255786722729 0.029014991015929070955481 0.005793311725289214744739 -0.019227115501715873191468 -0.013816306975605874285407
356.000000 -0.009534893014231621971577 0.029438901839373393665156 0.025874407098535768395609 0.003155094164699120875411 -0.019555193933106923553922 -0.013809552257840149516732
358.000000 -0.007933502252817274322250 0.028750738681136252944404 0.022699137296592428875153 0.000595981720082610385951 -0.019790939500142948337391 -0.013741009490128332226622
360.000000 -0.006522876966184107047630 0.027870683927586039491109 0.019480888768357022128308 -0.001870695061444870369027 -0.019929117288139869268448 -0.013605412023950168992625
362.000000 -0.005318626257855474728786 0.026763109696383992341939 0.016230613704733970470429 -0.004222323695130017831567 -0.019963675239583356796347 -0.013397772917980940027283
364.000000 -0.004324902100263994415841 0.025419846447467576294743 0.012980870068133410627498 -0.006425554977758090625939 -0.019888153392777448147388 -0.013114482525589631067842
366.000000 -0.003537415866801059665531 0.023848557659750573012314 0.009775724997366350491057 -0.008441663684968703576517 -0.019696604915032542293396 -0.012753944058629788221859
368.000000 -0.002947674807415845942005 0.022058671401205501294562 0.006656986981939018964416 -0.010233869365255731515019 -0.019382956351844896764058 -0.012315087668640636517359
370.000000 -0.002545314676717396872724 0.020062617811827151981241 0.003663068188297290746908 -0.011767837419868054996130 -0.018938507241996010294072 -0.011795014250088477203438
372.000000 -0.002320290344513304629098 0.017887533251279348622820 0.000838559401123513859129 -0.013006405298590369840062 -0.018349606443315558818030 -0.011187755182589286320760
374.000000 -0.002261339738342067404164 0.015581417908276174941196 -0.001761612296962459904559 -0.013910445892940423440187 -0.017600284218833053134778 -0.010486724422991129321292
376.000000 -0.002345938750217455535940 0.013208247502631668274242 -0.004081341084876880312415 -0.014452569984271487410488 -0.016682228181884199008644 -0.009691645550207019302325
378.000000 -0.002532231019734164194357 0.010836278642865694241126 -0.006078230865155814614809 -0.014632837895745074568987 -0.015604985188066567564080 -0.008814794186766079092665
380.000000 -0.002763598836994962410635 0.008527328830467603357213 -0.007731410369873002209895 -0.014480904746278141018156 -0.014396943922640063895368 -0.007880703323084149031219
382.000000 -0.002978916654881318733933 0.006333204978453015054907 -0.009038710735998411668901 -0.014045395175974995441437 -0.013098165968435996481256 -0.006920696867048131695199
384.000000 -0.003119736662853616303293 0.004297619926319064774523 -0.010009582897711045632039 -0.013381709737221848116606 -0.011752272290206609850483 -0.005967080652323872476395
386.000000 -0.003136311614386456340237 0.002457505610599977283193 -0.010660745089079217209904 -0.012545689098175379777578 -0.010402114175330341022674 -0.005049924302320263347355
388.000000 -0.002994530976121478373086 0.000842045911722605648284 -0.011015331501987229295692 -0.011592891386634681868961 -0.009089224846523398168574 -0.004196319642439548178170
390.000000 -0.002680844909630207464207 -0.000529796348826992919735 -0.011103938156861462016600 -0.010578854135040536427192 -0.007852954086924344989651 -0.003429455131901476376555
392.000000 -0.002204398471472788969411 -0.001651044431309250416773 -0.010963735890228911915023 -0.009554338492980140110089 -0.006725015402997096616855 -0.002765154854157041239976
394.000000 -0.001599773953873339553747 -0.002526130336929314004757 -0.010634032660407397030689 -0.008556623127047434385073 -0.005721924373879045538915 -0.002207773311028870741324
396.000000 -0.000926987879491050510011 -0.003168317436582066427136 -0.010151096365358503945120 -0.007605261941815664832045 -0.004843217721312254205046 -0.001750177894107532699380
398.000000 -0.000261678089404484518366 -0.003595636615224928871876 -0.009544990488621868385266 -0.006705953070173956663547 -0.004077453217965705360715 -0.001378532504891548946327
400.000000 0.000323345124393161300648 -0.003826973900924706805532 -0.008839095362769193095498 -0.005857660805281468888173 -0.003409898835466741110617 -0.001077744604863233555958
402.000000 0.000776919056660347034232 -0.003879282125470815984630 -0.008051169438567925412675 -0.005057648934276807485555 -0.002826886438879154181403 -0.000834448038790889341440
404.000000 0.001079935226855623878889 -0.003766262052275797661549 -0.007195381843109890755705 -0.004303761073306589662879 -0.002316977479506088927197 -0.000637733687345289654118
406.000000 0.001242111769621553505824 -0.003499826946350640365091 -0.006284972444534843612207 -0.003595224531510277793389 -0.001870890087646742997937 -0.000478910393597932546993
408.000000 0.001289569960693782296746 -0.003096373709475618799664 -0.005336470414100924833378 -0.002933131695421978095417 -0.001481336888774443345460 -0.000351072895915712673062
410.000000 0.001251884224367566826250 -0.002587503322211552256316 -0.004375821270986686439830 -0.002321425520376741921669 -0.001143100673144606437351 -0.000248704080147530088088
412.000000 0.001154579263308153471226 -0.002026660375928821498925 -0.003442218063848970742435 -0.001767521752950558001916 -0.000853065027726354380318 -0.000167395118626351233765
414.000000 0.001018826755878520819165 -0.001480052165042482215096 -0.002583408792033801970600 -0.001281464918314941187419 -0.000609839237021645949079 -0.000103756634350254806748
416.000000 0.000864372597512318889892 -0.001003309045097177699957 -0.001841712111572966917641 -0.000873072389742013421111 -0.000412830342668847279954 -0.000055457472054254376877
418.000000 0.000709938170047228703924 -0.000624087863509507336998 -0.001241281125159318567824 -0.000548351348810326524354 -0.000260854581275127837044 -0.000020933369812817932654
420.000000 0.000570029879021485808531 -0.000343382778615984336074 -0.000784625450241010439362 -0.000306447454148303329892 -0.000150708135360777160331 0.000001325193172492283732
422.000000 0.000451768403393222920620 -0.000147371770883809297039 -0.000456794879379756083807 -0.000138632137716948789950 -0.000076483303030096193536 0.000013391856025954000176
424.000000 0.000355317376764579509387 -0.000018050086072820618720 -0.000233288556710013137699 -0.000030552562981964162992 -0.000030397806387410588344 0.000017868186486919340527
426.000000 0.000277420821048116441124 0.000061406384933707252086 -0.000088270450368189390627 0.000033254914103353798774 -0.000004665197888998245051 0.000017305930652575336536
428.000000 0.000214403750965475351723 0.000104819032808706977819 0.000000344764863971303305 0.000066080656275408153626 0.000007184887405715406112 0.000013768958343063698562
430.000000 0.000163351216152808842658 0.000123322364983377623327 0.000049785184966386173029 0.000078077958422003251285 0.000009967889628657937881 0.000008708487460185860594
432.000000 0.000122050845680254948546 0.000125531932369961715277 0.000072919499838208540372 0.000076727611780455653263 0.000007191193553506241608 0.000003126962910942121089
434.000000 0.000088625797993968483991 0.000117887834532996369202 0.000079287795575364283232 0.000067644673679818112283 0.000001489577657721129810 -0.000002246967950054475056
436.000000 0.000061550164825873956336 0.000105043761687720034817 0.000075840267008334298691 0.000055059331662181648474 -0.000005147566357722988674 -0.000006894338206526966404
438.000000 0.000039869310385987102017 0.000090495583024784951318 0.000067691437158356809137 0.000042080307679539679961 -0.000011322887708296008717 -0.000010520576642811065691
440.000000 0.000023192793820651675941 0.000076760206616756110906 0.000058352804223164056224 0.000030603401006915748050 -0.000016298823653194610748 -0.000013100013555378904181
442.000000 0.000010993989480443323558 0.000065102282779558139211 0.000049704017599193658472 0.000021388212837830882071 -0.000019884894677015630342 -0.000014768142815580869034
444.000000 0.000002500183484605799682 0.000055764744905652375944 0.000042442931979218880825 0.000014395474365170023799 -0.000022234317286664827804 -0.000015729562548227880891
446.000000 -0.000003223770557156285814 0.000048462065645493636757 0.000036578889122623509285 0.000009268396661743449839 -0.000023598117639753688634 -0.000016169483957428653812
448.000000 -0.000006962986155730200784 0.000042810320994295310868 0.000031951373703458077523 0.000005587080512430840638 -0.000024227204206477899489 -0.000016239608987957591084
450.000000 -0.000009310218325123942635 0.000038397772886172473175 0.000028303051556071447375 0.000003003042050039830190 -0.000024313733312923468738 -0.000016045105276475315071
452.000000 -0.000010687139305720836356 0.000034941031945313368165 0.000025452769909714554101 0.000001251159283182433091 -0.000024013064919798729214 -0.000015672248428392046208
454.000000 -0.000011386059828405583615 0.000032146208257749702504 0.000023155292651745919828 0.000000078025941194380546 -0.000023455049136474957045 -0.000015186782847297281614
456.000000 -0.000011635720059928252672 0.000029859826547888932937 0.000021304244747872343874 -0.000000663096727391530750 -0.000022726904861593733454 -0.000014632841639168367133
458.000000 -0.000011589925733832596807 0.000027933153981488433395 0.000019751237020499436803 -0.000001140146589183954397 -0.000021906348739515550515 -0.000014046868736651145796
460.000000 -0.000011338176631299651207 0.000026278678645675539269 0.000018424229799883157975 -0.000001439773263982519109 -0.000021033310472156993050 -0.000013443262697551137442
462.000000 -0.000011028440779506378273 0.000024747435227183345785 0.000017250970208355847027 -0.000001611361542594959522 -0.000020140206652883834712 -0.000012838601365163515442
464.000000 -0.000010643104765386070026 0.000023407519953398229779 0.000016217537649838581080 -0.000001699560890190910856 -0.000019251622763258797501 -0.000012247330459436317777
466.000000 -0.000010225278759465481753 0.000022195625543891113972 0.000015291747886574423777 -0.000001729876513347756132 -0.000018371437340146672557 -0.000011666655308870772442
468.000000 -0.000009777306751160918472 0.000021014175780368074070 0.000014412458532573286721 -0.000001739799690906366747 -0.000017517643256329345044 -0.000011106776445731081026
470.000000 -0.000009352912425867673790 0.000019907755938244032991 0.000013610572624656303551 -0.000001709064622753302680 -0.000016687116215532421114 -0.000010566399714135087126
472.000000 -0.000008877195816513697919 0.000018911874366727529000 0.000012880972715621244690 -0.000001667526595258073932 -0.000015893783008006084624 -0.000010056388841954779395
474.000000 -0.000008435626833237555895 0.000017946248810056891857 0.000012176495957838985985 -0.000001634134848930114749 -0.000015136744540288848035 -0.000009569162379970664830
476.000000 -0.000008009468545651119166 0.000017011200002990894373 0.000011516692271825009893 -0.000001583232252351876372 -0.000014409102194832596909 -0.000009101604304489024065
478.000000 -0.000007606364687247350608 0.000016148230935048744965 0.000010913036987653642595 -0.000001529891765788010044 -0.000013714037951632036959 -0.000008655208904394926417
480.000000 -0.000007195272945835933392 0.000015329991399511345751 0.000010340369583286306894 -0.000001476728150522571499 -0.000013060615173709995540 -0.000008241430435975866616
482.000000 -0.000006824104340626651585 0.000014538013083674965510 0.000009806568590318182036 -0.000001415134365499047088 -0.000012433774727581135521 -0.000007845005520072672009
484.000000 -0.000006449729774378129125 0.000013852808375700913994 0.000009328491001780221946 -0.000001360772824760807377 -0.000011836879692490875644 -0.000007466086493015645120
486.000000 -0.000006148636896227343533 0.000013163907926009857377 0.000008857584136541849263 -0.000001292757828881112735 -0.000011265731966769507093 -0.000007107443830532044991
488.000000 -0.000005845685019824001877 0.000012478238725229671283 0.000008406974973226085686 -0.000001229650871689543091 -0.000010719101218810016306 -0.000006763388675609647741
490.000000 -0.000005553400283631189813 0.000011917721977371492390 0.000008020379394645377175 -0.000001165719845516037465 -0.000010198841844338508501 -0.000006436069339196133805
492.000000 -0.000005273142425254355117 0.000011399835939358840138 0.000007661432704766384482 -0.000001104178448854881038 -0.000009699824736250245528 -0.000006119543375373939560
494.000000 -0.000005056871480489228138 0.000010879369768673952771 0.000007326826416784993705 -0.000001041396206172289992 -0.000009228597262748759820 -0.000005823492291173033911
496.000000 -0.000004800507945326597641 0.000010400568672753386537 0.000007008844396026500515 -0.000000974542611243305805 -0.000008780566787627401706 -0.000005544465848800403588
498.000000 -0.000004569522523816357336 0.000009870748115542012511 0.000006671210522499450033 -0.000000918919042101441557 -0.000008350818313112536365 -0.000005273492496764159544
500.000000 -0.000004331944608975009472 0.000009405899440747312286 0.000006350708742934698082 -0.000000878108037537290514 -0.000007945343634772908745 -0.000005017767026452323300
502.000000 -0.000004118106123362465607 0.000008908053127314611970 0.000006033873923832828530 -0.000000823506333195008087 -0.000007552473020522001915 -0.000004768641105694717678
504.000000 -0.000003950907144417479057 0.000008462187257554649769 0.000005766216899895364172 -0.000000755831239641123215 -0.000007176041160078731507 -0.000004532685606131814752
506.000000 -0.000003777561993737015367 0.000008089125949670604649 0.000005509167960859006125 -0.000000707169614994932498 -0.000006824839894104023639 -0.000004309423924011816690
508.000000 -0.000003623397777634538840 0.000007692684647251085079 0.000005243721093437323582 -0.000000680428069615146291 -0.000006496924081082390901 -0.000004101333371871163273
510.000000 -0.000003429159374837900174 0.000007310084791939650174 0.000004985338843034311528 -0.000000649388273308104425 -0.000006182261645864137689 -0.000003902508512614889034
512.000000 -0.000003200992557770752902 0.000006963274856482067787 0.000004730926176393041893 -0.000000630346292797413783 -0.000005893179862421906869 -0.000003722013914725429481
514.000000 -0.000003044011145511265781 0.000006683178209595577520 0.000004525383462809669741 -0.000000593847520547061037 -0.000005608664494768186390 -0.000003544553934773917370
516.000000 -0.000002924786618994683377 0.000006387992788194129963 0.000004345692232781938831 -0.000000536908421572432752 -0.000005324934612880558748 -0.000003364555600802210320
518.000000 -0.000002843867478218141448 0.000006015270726257147910 0.000004129237112380925270 -0.000000499503606264356439 -0.000005059537389945383219 -0.000003195165506993008852
520.000000 -0.000002743692072471040235 0.000005747760044237495075 0.000003949487839221980740 -0.000000469459591982734264 -0.000004816525238524641866 -0.000003042418975127652302
522.000000 -0.000002588681976334197416 0.000005487588454605640022 0.000003765387327988985784 -0.000000448694282783638988 -0.000004588005483245861093 -0.000002901091666431280061
524.000000 -0.000002433316139953293499 0.000005230179708701515227 0.000003605212614722506855 -0.000000418518255211587706 -0.000004369873059471646658 -0.000002766346948564010585
526.000000 -0.000002288747329719502240 0.000004989666330569667244 0.000003446130907155370740 -0.000000380109159252154297 -0.000004152242738522608796 -0.000002628261509929735893
528.000000 -0.000002153776387100689377 0.000004765122088185752624 0.000003294547253114873085 -0.000000341902835830465166 -0.000003948633311962656341 -0.000002501743075936459501
530.000000 -0.000002057160343476385523 0.000004547418738802865969 0.000003155330401240548619 -0.000000310107061212288369 -0.000003758427197026415744 -0.000002384050906248550563
532.000000 -0.000001975039444810381491 0.000004350812161548043324 0.000003017199726107344648 -0.000000289709500024343943 -0.000003581639764981242750 -0.000002274145618392926783
534.000000 -0.000001862590262899224578 0.000004163811378532029265 0.000002890422280880486331 -0.000000262524754951175527 -0.000003407438927783000270 -0.000002164400168057309567
536.000000 -0.000001774796183283158622 0.000003965447596188389065 0.000002775771367718605562 -0.000000235179421968937806 -0.000003243419827088477432 -0.000002062439978064649271
538.000000 -0.000001777672754840945103 0.000003741452560788204343 0.000002652795840613857888 -0.000000204859896168789304 -0.000003079407942557716049 -0.000001955869348234899992
540.000000 -0.000001703173344823306844 0.000003513396041418621933 0.000002506767065169088675 -0.000000200150243003909914 -0.000002937632609994467147 -0.000001866171631483471505
542.000000 -0.000001616156810017739738 0.000003301146629213119515 0.000002376631721458817435 -0.000000195251847695427398 -0.000002802982615804194077 -0.000001782087285281147801
544.000000 -0.000001549970581180010269 0.000003131812831158175657 0.000002270107512186398723 -0.000000184394199520802612 -0.000002669910312900084504 -0.000001696905499287080586
546.000000 -0.000001477453605191024762 0.000003021793719826934337 0.000002182189869393265574 -0.000000163920458953894434 -0.000002540278065976063172 -0.000001614668964506659368
548.000000 -0.000001375446523690521466 0.000002936614138910584782 0.000002094208885351331203 -0.000000160193219154436669 -0.000002421809802768615089 -0.000001539831402130796970
550.000000 -0.000001308946561956765110 0.000002847330255279563216 0.000002022614663652007269 -0.000000145898466854158556 -0.000002307487048276323704 -0.000001467846088349524177
552.000000 -0.000001286761046995386161 0.000002639021175983059560 0.000001895900032158889656 -0.000000143269982286767318 -0.000002197663012351113176 -0.000001396810333639692850
554.000000 -0.000001250314570417245715 0.000002492979866829253848 0.000001805551194428903717 -0.000000128573319198380981 -0.000002089612643909206953 -0.000001328704360785564845
556.000000 -0.000001134445683714721856 0.000002403833104927715359 0.000001713643698064481976 -0.000000139091122143375497 -0.000002000295581749482805 -0.000001272647136135469782
558.000000 -0.000001082644816185856775 0.000002262151308138928329 0.000001619090331644246335 -0.000000139883695593621960 -0.000001908784367249152606 -0.000001216043641813161054
560.000000 -0.000001062896035622102645 0.000002176196334672253265 0.000001568945237045294039 -0.000000120439604699992294 -0.000001817595170923788981 -0.000001159963395608295440
562.000000 -0.000001039044038759155187 0.000002088395618057196084 0.000001514567192165069854 -0.000000104434309384495813 -0.000001730536588276655725 -0.000001106616014034424040
564.000000 -0.000000972233954167185366 0.000001999097689263381965 0.000001460768446481423403 -0.000000092483615839553027 -0.000001649621030241851731 -0.000001055121096433145484
565.560000 -0.000000914292326150648181 0.000001899689013619697410 0.000001380243141229961652 -0.000000104294865186784749 -0.000001589639235481015098 -0.000001013822642350830787
