0.000000 -0.000000000000000000000000 -0.000000000000000000000000 -0.000000000000000000000000 -0.000000000000000000000000 -0.000000000000000000000000 -0.000000000000000000000000
2.000000 0.000251958813491775666851 -0.002518942272246054402129 -0.004681440023213491279097 -0.002099175227743394888530 -0.000034091011098121088894 0.000112877792825273406160
4.000000 0.000958627428075373524442 -0.001629828199854917170075 -0.007394118444074140178435 -0.003536402087306386200771 0.000216462255077958865609 0.000375999168826424536374
6.000000 0.000870114007010972922290 -0.001566112217288961059106 -0.009909121896230515050275 -0.004336572134845368721445 0.000476304719490584012754 0.000591567172910497751474
8.000000 0.001071296961552473505155 -0.001269547546279234731537 -0.012337813063859304554826 -0.004861895528765945717620 0.000750404182915425516098 0.000803853550534582321149
10.000000 0.001861415429090502006784 -0.000319292679978199715057 -0.015418096369375040161076 -0.005554307061915368312621 0.001072085453297093836367 0.001043482136155584943590
12.000000 0.002718392506323392097956 -0.000216125453648144177574 -0.021651922121722615155459 -0.007067704476160327486944 0.001456020798706323445687 0.001352261653558658799010
14.000000 0.004148066364453988422167 0.000717425309025774313003 -0.029068651873192425522108 -0.009355411358315824169041 0.001927226110950617382622 0.001746818844038015502984
16.000000 0.005815605012184432882905 0.001985787126605765944010 -0.039735196283311263742988 -0.012848088885510162288073 0.002565904907611088643649 0.002303714478406538018057
18.000000 0.007866552399842739393132 0.003604072932568169219947 -0.053120348079024298781903 -0.017430457721331137077581 0.003470160177889937934415 0.003079889550847575169917
20.000000 0.009430194401162900891267 0.005208467159892843367786 -0.064850217034217894074288 -0.021314175623995363501040 0.004693880697560151235570 0.004105166660271440323693
22.000000 0.011066631786692527478211 0.007310563256982127375294 -0.076040464985577843615161 -0.025099130190691754799248 0.005913410198219611751957 0.005113195883990988115098
24.000000 0.012704446815077659327375 0.010173673105414183723272 -0.084508374537173608365137 -0.028301082225616124715684 0.007153574731283698744100 0.006127095547965673641433
26.000000 0.013856285631036305977526 0.013372582320642093650642 -0.091606903450600574156937 -0.031360111622286815369343 0.008895278092085351015483 0.007577754707403390986575
28.000000 0.014493317513038190408325 0.016721959211389077898380 -0.096330282082260090814607 -0.033986722166434384095890 0.010219934450611199358572 0.008718919854293717686122
30.000000 0.014794224299203552475124 0.020353017491632551666525 -0.099843672852623077673684 -0.036578799563586048004815 0.011578935280313297148669 0.009890745761480182127179
32.000000 0.015149378194349095647087 0.023810518514683121776843 -0.103149479646003780497487 -0.039155606333637620053434 0.012558009668858840027217 0.010712127445377684492600
34.000000 0.015877430222268243409367 0.027921296789146111266833 -0.105979066746671471421770 -0.042228356163335131756575 0.013570645178981651651773 0.011596173861932583884493
36.000000 0.016638972708575613251858 0.032477973860072735512450 -0.107992072216622339575487 -0.045126073139647920884343 0.014325822425315336977603 0.012191601586491320613481
38.000000 0.018441818838325931689814 0.037179520414557000462796 -0.111254265078570530045354 -0.049454282543199439003967 0.014506306711417846569412 0.012318184726823893856973
40.000000 0.020165114796091860444038 0.043321815962094542551419 -0.112460841992582119552857 -0.053568689065061840526294 0.014697945017809218096194 0.012493163921262524437839
42.000000 0.021617408666454174248628 0.048348696403651747477426 -0.114654936582829894420321 -0.057579796896836545061493 0.015225960981658962639651 0.012964112911434989838799
44.000000 0.023445540262281298199420 0.055033094027585972851657 -0.114569118360256391730978 -0.061193561762181755692147 0.015444894618369392827462 0.013168668694208650327138
46.000000 0.025122853514553782072749 0.060492018297665040016398 -0.115337790174285720334879 -0.063834152919459083430631 0.016091607237858747414538 0.013663919549491506180705
48.000000 0.025746993233685778329489 0.066136457434015333278765 -0.114285022310494741026865 -0.065363761609242995720415 0.016926104809553997598837 0.014276424375789534271242
50.000000 0.028117791783900992347300 0.072824086314172239986497 -0.113981033778667042999366 -0.067679116358500365779882 0.017358658616741996782995 0.014549909636067006116211
52.000000 0.030024788436890072901297 0.079787100236246036311094 -0.112144983613260904031783 -0.069201841374694317288174 0.018095252989500931750655 0.015068501449522646307155
54.000000 0.031219332279237337057776 0.086169781931915004347111 -0.111503517017664810495603 -0.070540403650003788427192 0.019234451483353672690546 0.015964903198003092127388
56.000000 0.032695703068514804512379 0.093995792427987737149842 -0.107297741599872056839082 -0.069824230852641194777775 0.020324249315985226660430 0.016716327281170763330298
58.000000 0.034502179144964131851658 0.099381517661201568270002 -0.105148324368098955439166 -0.069739986205848314426703 0.020878461399432758638373 0.017049698944148775070495
60.000000 0.035835693152770145553099 0.104620328609881865777886 -0.101009784679308975419154 -0.068055812736180984479084 0.020946665215710043306263 0.016915117251992694419327
62.000000 0.037571948491765448652213 0.110690761042592442087162 -0.097140633093038733503199 -0.066528463508973720297313 0.020023759582103870663383 0.015877240776133155070182
64.000000 0.037136632330753212294372 0.113277184017096271828606 -0.093776694186601963765249 -0.064163811891471772552720 0.019343294450416333163378 0.014979254409766516731306
66.000000 0.033060720347989881739981 0.108548502471879027009294 -0.093057019348567054928267 -0.060348881788726563280001 0.018903777159693803400220 0.014119701779983145906172
68.000000 0.028213398264631969758476 0.106146668091622473073521 -0.089507983074313637872343 -0.054294075595140434131736 0.019344332166049506283034 0.014046055079876409305006
70.000000 0.024786080325282386360719 0.105395411153669738002492 -0.084963196975730348459166 -0.049089752667237931960109 0.020648871563454740396537 0.014797111479296437552833
72.000000 0.023112114918855810458131 0.103677810787005192372234 -0.080356082028311764942075 -0.043760039897522896856774 0.022441844854978559159475 0.016038498986162899595520
74.000000 0.019460088132118563003514 0.098783475534612336099727 -0.076232325572301209981596 -0.038739334161091973363078 0.024455643369881100573915 0.017504785547268260359477
76.000000 0.016553503725725070977459 0.089446446597644516107728 -0.074673557017487790510302 -0.035296239986655583709130 0.025600979964388231868710 0.018271453803780160485282
78.000000 0.011783483511872212129434 0.077094083356265163953225 -0.071643509129645552291343 -0.029451329387195229053686 0.026922194167174721968205 0.019065818708422443972239
80.000000 0.006663924459299100377940 0.063083441454489283528595 -0.069817301236253459517656 -0.023747670523586499047308 0.029916765825822366764442 0.021515923712062838546455
82.000000 0.001976420379157075093990 0.051352710179642366283836 -0.065908157802035322037071 -0.017693880886691937259769 0.031901642970978541513638 0.023002438726356381343274
84.000000 -0.001170416498540409119822 0.039354508228273521464047 -0.062238760711522615742819 -0.011701391969256581468417 0.033190974442346074524401 0.023856244785302283678563
86.000000 -0.003693389811811761524324 0.029791333831715612751045 -0.054090449013619923412932 -0.003941754676842578949958 0.033990897648495166372129 0.024216382713789012109951
88.000000 -0.004782930259777017079070 0.020673341395691331723317 -0.046649011035443714578985 0.003720762571732836709176 0.034539932405541873272625 0.024331571198794570837221
90.000000 -0.003568462156707954014562 0.015140722300114758253065 -0.039019385855322087641728 0.009989757266435002683314 0.034333647864730344745343 0.023852485338546343396349
92.000000 -0.003141674690996358338541 0.008883199633393842192808 -0.032345304442357059038216 0.015422926887002986681696 0.033870212933986863779179 0.023181578126268889000761
94.000000 -0.002160208178783338227313 0.006440037414755002062594 -0.022572740098168855849003 0.021675261197966238374546 0.033278064424234816975900 0.022382329210572170230531
96.000000 -0.000991397741286431525079 0.005170685817983453058666 -0.013815940957680423323284 0.027225588233394704823498 0.032349775505273604958578 0.021325557633967203580161
98.000000 0.000055427490071337734976 0.006404853897636103750302 -0.004512728357477751098270 0.031331920723745812495942 0.030559888470339972160739 0.019721169383525482404762
100.000000 0.001177200650541312216754 0.008740245678801293605087 0.004219376524154687044255 0.033916775887863501171005 0.027809598870261315745056 0.017498067091494932251416
102.000000 0.003019681179538046510158 0.013265796544013674224116 0.011342220687855505273367 0.034614543998290184245725 0.024581996702158458167897 0.015021703113219930791900
104.000000 0.005550176785768212196770 0.018514451562807964640767 0.016968595633850457743419 0.034096777353962499923501 0.020769764066681396103009 0.012192774782253158055711
106.000000 0.008849509432312430839973 0.024156048650274031946994 0.022066715649932129583721 0.032897898758187077428161 0.016651158187414666356219 0.009211908987703803716740
108.000000 0.010806575536535989803810 0.030222923920349482884706 0.025862307417337474652053 0.030951782611312327747610 0.012607709544109274926726 0.006351670824345014357282
110.000000 0.010637621266525044971818 0.033522008322536558933002 0.027778340460741984818682 0.028313257766189772746124 0.009194962267814580508807 0.004069484653530884739336
112.000000 0.010284611248628351340417 0.037269921043775564029055 0.028871432078743770877072 0.025987287102092335860926 0.006691549068004573955215 0.002434647766096857245816
114.000000 0.009343865058843181872761 0.040073468497043671088242 0.029422785358459008914211 0.023974286926223487698140 0.004837105810197625532787 0.001288281839604936418464
116.000000 0.006720389646638435729442 0.040898252458604608672310 0.029410402177601352446956 0.022643039823095685580956 0.003916980996580545111574 0.000791732896845993914907
118.000000 0.001229760430472908068478 0.038870388943989329921802 0.029215700179678578268794 0.021550333409121654598684 0.003258321838139101311871 0.000507569152780111619398
120.000000 -0.003112332661522043946584 0.036071678553709372871960 0.029163436040818065120295 0.020642193971811606534317 0.002777194737296579448577 0.000342456788213709839141
122.000000 -0.006715067536804984922594 0.031463922659956664040770 0.028510919703167408867373 0.019588712979055174917553 0.002321624120401152586296 0.000190675385590649402621
124.000000 -0.009492999050207959546577 0.026697968185907135912904 0.027974492804331233669624 0.018387090319347269146144 0.001823562701907297835258 0.000016423183493596411029
126.000000 -0.009716472905373033791543 0.022531625919937122576320 0.026697741977890446229971 0.016969364730434501747913 0.001357184553898432973970 -0.000165461600847100121945
128.000000 -0.008698464273025076007317 0.020203013857867817282266 0.025114513259451388960120 0.015227767341553328714343 0.000789462732384148767849 -0.000421812274049409500869
130.000000 -0.007721792236175305766677 0.017163911764658212194545 0.023013538437973025951866 0.013504522525799244128675 0.000369804874042464759576 -0.000575378388466107676055
132.000000 -0.006628059621528734242368 0.013788010913339938251498 0.020648796287634208629358 0.011701190113137065890170 -0.000044006699930587608307 -0.000724565305659848925279
134.000000 -0.005652523721020778248170 0.009102315750727623874794 0.017581332789232118757328 0.009872355477130799472629 -0.000358270170250150888063 -0.000803752955702800777477
136.000000 -0.004743317655619478344364 0.002965547580609264460838 0.013659872295283871992955 0.007781128404681294553902 -0.000631153866291951225372 -0.000831772833839036058144
138.000000 -0.003940758676081825874482 -0.000974369408068567321307 0.010674292589738119604870 0.006034524091163519753100 -0.000861830349828834364756 -0.000873533840872534592982
140.000000 -0.003086991239638035410681 -0.002131435350648797858591 0.008630602405505885185710 0.004515913158256742651608 -0.001103514332336426708239 -0.000950914453488891373359
142.000000 -0.002321786286639916825625 -0.002372298434403358885492 0.007030602270165999326257 0.003257067136487012438961 -0.001292072976657566898279 -0.001014791834486344739019
144.000000 -0.001818061792890704421108 -0.002629239407630849876402 0.005884030271462461179899 0.002413342386559244427680 -0.001420004692370386819092 -0.001062129578600258614923
146.000000 -0.001560905782776560602604 -0.002941878953466547669954 0.005093985907885758418479 0.001877509081961451810339 -0.001448276176089017142773 -0.001043426101378035599290
148.000000 -0.001560030205237396749504 -0.003010969900664341343532 0.005241800382161769696066 0.001963031765286953229943 -0.001444922306636928482221 -0.001044535342247489544815
150.000000 -0.001529756485654379296463 -0.003090653840964874190383 0.005339509825734400222386 0.002019164533868307142422 -0.001432713717029765378846 -0.001034675151485830264450
152.000000 -0.001479908346318379837661 -0.003165612273648166566375 0.005419176436379127652365 0.002071131460680559598780 -0.001404273463092552088824 -0.001009476316436988627828
154.000000 -0.001439392795076483658884 -0.003266872419408174514632 0.005461271840101263909395 0.002096111142158274629615 -0.001410268434559448216467 -0.001018299865088918105746
156.000000 -0.001427565200708028536267 -0.003398133871433269091039 0.005474226994078539541844 0.002111418207969130954316 -0.001413120259729568495982 -0.001024459524207484411445
158.000000 -0.001472007060530908847257 -0.003580426098875927679033 0.005453776796946165766888 0.002123645469847894057952 -0.001409211951702838338737 -0.001027067556320251364918
160.000000 -0.001385614756016568648728 -0.003616257725815186924168 0.005514960151646797724412 0.002151222410617294016066 -0.001430167402252781848337 -0.001051257089421437588422
162.000000 -0.001305071185133667823267 -0.003646463507404097432324 0.005571875362105170939597 0.002166695746976137360723 -0.001452667971642645832961 -0.001072285299127301782737
164.000000 -0.001256538608810137038624 -0.003696079150522245393429 0.005617116772042362454753 0.002178818438108809981552 -0.001463746747847082365149 -0.001079987921341487829355
166.000000 -0.001240252083587469475803 -0.003769587629112094474826 0.005647204437270196032694 0.002181963617533635210050 -0.001477470532233223247595 -0.001088471196831882316716
168.000000 -0.001243969102072288055935 -0.003855305120348805417163 0.005670626487441742143158 0.002179400201247100321567 -0.001495696711301712326925 -0.001099965552947959829613
170.000000 -0.001248965138641178283102 -0.003933026420234278855426 0.005704516801341513732027 0.002183766866184998906020 -0.001512991958309322943627 -0.001111232860330355325801
172.000000 -0.001255570611516499020255 -0.004004542298661040167218 0.005747905211430669181194 0.002194195510976734361797 -0.001529812788849706011937 -0.001122573975864988617135
174.000000 -0.001263873878052727524682 -0.004071312091266156632519 0.005799958542270340633440 0.002209930099146654568915 -0.001546436439176626697137 -0.001134119578294581981784
176.000000 -0.001273901054469987140921 -0.004134631552885735181202 0.005859921980877203818994 0.002230308594042368537658 -0.001563081269179446113060 -0.001145962697418402044536
178.000000 -0.001285643356290162462804 -0.004195621380607885558822 0.005927144894603140340417 0.002254763803115554868239 -0.001579926978759902062369 -0.001158177668486665362960
180.000000 -0.001299079998958621411098 -0.004255248086434771336017 0.006001102559712533611458 0.002282839492197406578572 -0.001597120891970255302308 -0.001170825918577822000524
182.000000 -0.001314173181976641515203 -0.004314321679286243008122 0.006081401740090999069599 0.002314179072539748055481 -0.001614785587331464804944 -0.001183960777425428247123
184.000000 -0.001330877875614196442083 -0.004373519758232934963316 0.006167772748970058900586 0.002348517521511314220389 -0.001633024443948456402853 -0.001197629925980739536151
186.000000 -0.001349156597294205858426 -0.004433414651028307756908 0.006260056733419900286408 0.002385672690577260012662 -0.001651925240089516461542 -0.001211877041027423305281
188.000000 -0.001368977378979485117969 -0.004494487048158615251359 0.006358197407146250201837 0.002425529332468874098988 -0.001671566073634412567112 -0.001226744138198050757677
190.000000 -0.001390314157443773212738 -0.004557143944202191737647 0.006462222463009847581161 0.002468029014329214086698 -0.001692018602844124006840 -0.001242273273355159590031
192.000000 -0.001413158263758940115171 -0.004621741773941046189933 0.006572237545435445811581 0.002513164073215423330310 -0.001713348088461108401429 -0.001258505143702116219062
194.000000 -0.001437513821011844519088 -0.004688596653576419283349 0.006688413960617751834181 0.002560964259368489134849 -0.001735620389363460094878 -0.001275483675611386279181
196.000000 -0.001463399265063815724713 -0.004758002097976828798087 0.006810979614057194840571 0.002611494826435277211846 -0.001758900054156832320693 -0.001293253819286487677973
198.000000 -0.001490846779763115503500 -0.004830223507290010154236 0.006940221723195424442798 0.002664850737030419192131 -0.001783252880037656390444 -0.001311863031738698176162
200.000000 -0.001519905575861439043367 -0.004905526684233512194067 0.007076471650058797566163 0.002721153229369834350426 -0.001808746551651799292643 -0.001331361261321497299961
202.000000 -0.001550632215792451754771 -0.004984166002295800645960 0.007220108300744367164914 0.002780544482266551157418 -0.001835453283392824959733 -0.001351802867105608707554
204.000000 -0.001583103026490932912357 -0.005066399102907374538129 0.007371558961345729861503 0.002843190676353687246225 -0.001863447946392974684943 -0.001373244643703380122451
206.000000 -0.001617404368379240977432 -0.005152491859374488600287 0.007531295828852993534674 0.002909280643963999078011 -0.001892810193570172673169 -0.001395747880414119129408
208.000000 -0.001653635293350758702496 -0.005242715901508205114667 0.007699833504563839171875 0.002979020844086701334807 -0.001923624644417620474512 -0.001419377702560884347421
210.000000 -0.001691906126137975681020 -0.005337355111301822149783 0.007877736387322765640451 0.003052638495315547571135 -0.001955983630673743811634 -0.001444205549262424876852
212.000000 -0.001732343803482874321914 -0.005436710992594855247628 0.008065616413891602692887 0.003130383512944571837433 -0.001989983909209178721683 -0.001470306475957726573267
214.000000 -0.001775084958139909767014 -0.005541106104542978076644 0.008264132064858306647714 0.003212526509003410437465 -0.002025728887507053169181 -0.001497760761133855702057
216.000000 -0.001820280096688838868124 -0.005650877197232776448510 0.008473997053629923892348 0.003299359999544902981999 -0.002063331388239046659816 -0.001526656039547460942327
218.000000 -0.001868091291816101557136 -0.005766384883907973123163 0.008695979602064581731602 0.003391200236202316850576 -0.002102910833709478993087 -0.001557085230155106497785
220.000000 -0.001918700703754302842874 -0.005888023773893533499568 0.008930899332640242563319 0.003488387097610418791094 -0.002144594737405746374959 -0.001589147253101646584464
222.000000 -0.001972301506420361463801 -0.006016209637077796559823 0.009179640068250883438994 0.003591286670204397145356 -0.002188521284523959210128 -0.001622949490018899204938
224.000000 -0.002029101290377153914146 -0.006151393091467944988782 0.009443144964079561512471 0.003700292919091172083590 -0.002234836604945864262789 -0.001658605503776953158171
226.000000 -0.002089325675210646025143 -0.006294055782664333305310 0.009722417353721854449411 0.003815824978679002634635 -0.002283698940451892381298 -0.001696237969440171113045
228.000000 -0.002153216042162667785698 -0.006444717537506760435262 0.010018526131296102282819 0.003938331554834304144841 -0.002335276028095096840370 -0.001735976771289465207110
230.000000 -0.002221032577789719669042 -0.006603938381993965274497 0.010332601351027590960707 0.004068290304586589037350 -0.002389746905449378119174 -0.001777960467607544569474
232.000000 -0.002293051722396685816741 -0.006772315932901260687737 0.010665841001191710482598 0.004206208850387279166161 -0.002447302851688166764471 -0.001822336778182817368030
234.000000 -0.002369571563625851289697 -0.006950499940470848507512 0.011019505057813549706025 0.004352624285209779654571 -0.002508147024667287811051 -0.001869262320219374677935
236.000000 -0.002450909725730644663638 -0.007139179726610019385835 0.011394928473024947684911 0.004508105626491911398224 -0.002572496910733255374298 -0.001918904333793304550770
238.000000 -0.002537407056927649430522 -0.007339100280575974223629 0.011793519732080370854277 0.004673256241717794849666 -0.002640581851055646446513 -0.001971438956410960247762
240.000000 -0.002629433979928817808475 -0.007551057438415114883568 0.012216779348469939195376 0.004848715534667219322074 -0.002712647808771880518497 -0.002027054462768925098548
242.000000 -0.002727387544505257676447 -0.007775901859378787743526 0.012666315884622879328614 0.005035162752268622539387 -0.002788957630938801966758 -0.002085951824532828683539
244.000000 -0.002831706359195695129477 -0.008014543568667388193094 0.013143884750810814338040 0.005233329917285235721724 -0.002869793495456499001633 -0.002148346430589535144273
246.000000 -0.002942875819658253341154 -0.008267963708115005569410 0.013651430146634358289703 0.005444010573867751924537 -0.002955461453138884427017 -0.002214471672062531034525
248.000000 -0.003061436249433089912958 -0.008537202454472760451698 0.014191157013789638952073 0.005668080966456813703236 -0.003046295743091986026746 -0.002284582612213210527780
250.000000 -0.003188002370388172065918 -0.008823386793706434680362 0.014765611600664948002692 0.005906524669747914048357 -0.003142666457468596546976 -0.002358962166693355771291
252.000000 -0.003323273239725432932901 -0.009127729348281460319825 0.015377777764766122417517 0.006160462532369563593004 -0.003244986338800136000532 -0.002437926625253360787132
254.000000 -0.003468050149338391344861 -0.009451549986132687722340 0.016031175559383485651477 0.006431188449395281413190 -0.003353721632610802763641 -0.002521834653793274434730
256.000000 -0.003623246736327925387328 -0.009796293051009890076597 0.016729947649660559944040 0.006720202044428244710084 -0.003469400075803380154027 -0.002611093703409473991417
258.000000 -0.003789895544565388598585 -0.010163562039831118555266 0.017478905302319828335422 0.007029236310898853874740 -0.003592621177014003984451 -0.002706168272400056185739
260.000000 -0.003969148938661349636237 -0.010555143289162986428020 0.018283521794960993361867 0.007360274576424799368446 -0.003724060868252619498076 -0.002807583530579854137754
262.000000 -0.004162258071690121130626 -0.010973048054178327626040 0.019149822113031116088688 0.007715538827112354385018 -0.003864473913674611443153 -0.002915926485099345349949
264.000000 -0.004370551009810530289357 -0.011419550042006867268674 0.020084161707994502982233 0.008097453301210593909487 -0.004014686822336973638647 -0.003031839612663771426487
266.000000 -0.004595386895787575108618 -0.011897233044813427388364 0.021092865943986321974890 0.008508562903959872997239 -0.004175583088564486546057 -0.003156007270784549467030
268.000000 -0.004838110207677853713548 -0.012409012654906475051075 0.022181769033635442139873 0.008951417119159825810937 -0.004348077405048844830404 -0.003289133243817390396535
270.000000 -0.005099994270051120409670 -0.012958152071987414852283 0.023355681670625284135356 0.009428420694758916920097 -0.004533081719508536520935 -0.003431911291162273707628
272.000000 -0.005382203171834014365782 -0.013548253319146445067256 0.024617896194752332539313 0.009941680284474218101676 -0.004731466793214123868483 -0.003584992302786461221276
274.000000 -0.005685772921448976544023 -0.014183205167235347909926 0.025969867344218126870015 0.010492884437554075502397 -0.004944022203654752957436 -0.003748951004870412599679
276.000000 -0.006011627611716121623309 -0.014867089571633032574205 0.027411219150403374339442 0.011083257385991562501970 -0.005171426605869069992316 -0.003924262222132096113170
278.000000 -0.006360645703153195232304 -0.015604076725641314107862 0.028940147831124526239810 0.011713623442530192442224 -0.005414238007923876001837 -0.004111295119754048744964
280.000000 -0.006733768549542674605735 -0.016398306072341960193395 0.030554239200124348047050 0.012384573029458863582808 -0.005672913285668516533700 -0.004310331381048990682936
282.000000 -0.007132157154143707426808 -0.017253823045394224566795 0.032251593056928748448620 0.013096713549327147416146 -0.005947861326257602131162 -0.004521611254027477037887
284.000000 -0.007557377992832447002880 -0.018174551951225730722639 0.034032167404991285619698 0.013850966998168423929827 -0.006239536916172829829341 -0.004745411363211650586369
286.000000 -0.008011599655685479326461 -0.019164331352853662682190 0.035899227116458223840745 0.014648890221299304750802 -0.006548565801369542020705 -0.004982146658190703125690
288.000000 -0.008497781068677982829751 -0.020226974085174084794225 0.037860863446806440613113 0.015493024650908208614264 -0.006875892214727951333442 -0.005232489599683392243745
290.000000 -0.009019789212169445485889 -0.021366303396610962506141 0.039931543451729827054475 0.016387311081614560487330 -0.007222925866217543705572 -0.005497489260673738172003
292.000000 -0.009582344836102613810924 -0.022586097743870589549253 0.042133545540222736014435 0.017337638092801341965776 -0.007591639163211575183632 -0.005778654045266231990829
294.000000 -0.010190514267003019863167 -0.023889845561145921226665 0.044497544815833310616338 0.018352519235154816923394 -0.007984524893681231236253 -0.006077930242675519054152
296.000000 -0.010848410822748058221499 -0.025280543255154799137108 0.047060208008083720399028 0.019443531247739606615532 -0.008404292856122439273059 -0.006397478363159700941176
298.000000 -0.011557180910283014127482 -0.026761898148648075729250 0.049853870132882283083831 0.020623993575837468172907 -0.008853303328064382818341 -0.006739214707394540829211
300.000000 -0.012313354312071988355681 -0.028342959931161027659074 0.052882309500397912949143 0.021903077355957766697570 -0.009332916010127870892754 -0.007104186299854976967272
302.000000 -0.013108169145175260078551 -0.030043637904708923869190 0.056085188218205475618738 0.023274168713059675134280 -0.009842742515584658111183 -0.007491741929221186653554
304.000000 -0.013926768398929107589668 -0.031891616191750904452107 0.059312808205755726542741 0.024702894784499322688998 -0.010379453472169635278033 -0.007898399173266613254585
306.000000 -0.014747305081832204690095 -0.033905220361263407879981 0.062346676987362278921090 0.026127613248344679075519 -0.010935519997373951972541 -0.008317047792364916022900
308.000000 -0.015543640705683491737288 -0.036074775259067153043713 0.064974954733433745723836 0.027480388227235887782518 -0.011499120897030421992180 -0.008737499208498393163391
310.000000 -0.016293188761821789795059 -0.038363031252437264362332 0.067067600091873860734815 0.028713632867845551716046 -0.012055893034760487708690 -0.009148306914256719088452
312.000000 -0.016983855299422635082296 -0.040724159149325998841018 0.068590850639796197008025 0.029808591432100382118131 -0.012592031972179652810073 -0.009538992497687560911945
314.000000 -0.017613703247812546176521 -0.043120185069521060894360 0.069571777615096350166901 0.030764253818588140065859 -0.013097259347015825781124 -0.009901888976606747910791
316.000000 -0.018184842983346126421562 -0.045522468445746568088683 0.070058416862549946491079 0.031581797904249295227963 -0.013566253717417955243496 -0.010233031718648883529044
318.000000 -0.018696953998247865108562 -0.047903816803979641647526 0.070097739491358918018094 0.032254235303657625977269 -0.013998607188185969996130 -0.010532153700649983171789
320.000000 -0.019143322024478087034494 -0.050230984345593705786559 0.069729667982827800432055 0.032762889924722371493004 -0.014397988741181640820477 -0.010802064067679624168039
322.000000 -0.019510622173695431336160 -0.052462932109378607181682 0.068988739382702946034698 0.033080029392142752675543 -0.014770501602535785271031 -0.011047263165801398526744
324.000000 -0.019783103487865077996233 -0.054555633414119744650783 0.067907047762725589179489 0.033175844404175737489826 -0.015122442410087732697632 -0.011272098200048553603980
326.000000 -0.019948988007487296336695 -0.056469381779576395541387 0.066515688372636688763251 0.033026066765034868544237 -0.015458273527116817014360 -0.011479277198506467744243
328.000000 -0.020003654810249169027081 -0.058172183322590255427631 0.064844456877233724867438 0.032615367149680878078311 -0.015779553996455478875882 -0.011669255968816041185709
330.000000 -0.019945054571774947088647 -0.059635255925419183853364 0.062921123584786645133171 0.031934361572550952479421 -0.016085252555754079445416 -0.011840625473106446835514
332.000000 -0.019765081050971425313811 -0.060824878986626675081428 0.060771306559041143868782 0.030974328857546151033686 -0.016372778439726658888942 -0.011990900349295978075115
334.000000 -0.019446593237925236669073 -0.061698738780691562977321 0.058419465881358399739209 0.029726720629630394576726 -0.016637960862269166040228 -0.012116377448293963806081
336.000000 -0.018969469513829995133136 -0.062209447828848227213250 0.055891193069565206497096 0.028188584368616161068832 -0.016874193077143634367232 -0.012211393055720436151557
338.000000 -0.018319941263869630315719 -0.062315216673506444722275 0.053213287668126330043350 0.026367576066277507995661 -0.017073751448784479922693 -0.012269611169030011921244
340.000000 -0.017495045981338001178651 -0.061992755260031451314262 0.050410894811009840377203 0.024282933632186306377454 -0.017232980862008660805085 -0.012288797748195511364000
342.000000 -0.016501263746582402192065 -0.061241829736055582167342 0.047505817109553045984871 0.021964043125381020604703 -0.017358142863621896234694 -0.012276179800178636802865
344.000000 -0.015354523473384021348132 -0.060078799088027101671372 0.044517943893953026979204 0.019449487929146757475563 -0.017465580507128430909347 -0.012248750684243631461912
346.000000 -0.014085743312405753571714 -0.058528536860620233861496 0.041466750397998186628001 0.016788008750690315562526 -0.017572452470726675211043 -0.012225134927936837092588
348.000000 -0.012743363759528494524864 -0.056617928777398324191594 0.038372844718583903889098 0.014037781663571967383231 -0.017683632257092515155383 -0.012213557371519625713296
350.000000 -0.011382924854807973530368 -0.054371761455851375099968 0.035258008997806955520105 0.011258705621080149911206 -0.017786504532183975563209 -0.012206259315402171947151
352.000000 -0.010051557724763239901056 -0.051821438806403462284944 0.032138351206813998983680 0.008500066503227364858586 -0.017858258950781406848574 -0.012185261829669280508881
354.000000 -0.008782086517820135440626 -0.049022627877370598958873 0.029014991015929070955481 0.005793311725289214744739 -0.017877187995773397011234 -0.012132455361033184573771
356.000000 -0.007595886165948018825533 -0.046059980581034012936392 0.025874407098535768395609 0.003155094164699120875411 -0.017828191389896382718083 -0.012034940813348465882271
358.000000 -0.006507682158220123511128 -0.043034081533503867889046 0.022699137296592428875153 0.000595981720082610385951 -0.017701574829950817574487 -0.011884286230930449224097
360.000000 -0.005529760161037576386700 -0.040044312147600583107199 0.019480888768357022128308 -0.001870695061444870369027 -0.017489580908912852330594 -0.011673582674092646341291
362.000000 -0.004672834211252144091808 -0.037177169493620258744482 0.016230613704733970470429 -0.004222323695130017831567 -0.017185042475941374184867 -0.011396491589401071264920
364.000000 -0.003942925631392579614853 -0.034502244448963055589719 0.012980870068133410627498 -0.006425554977758090625939 -0.016782897754134350198907 -0.011048999422624701180484
366.000000 -0.003339351276913206292146 -0.032076709297264402453997 0.009775724997366350491057 -0.008441663684968703576517 -0.016280833452957971241304 -0.010630242196113862812590
368.000000 -0.002856156405916833885411 -0.029949487691623512264361 0.006656986981939018964416 -0.010233869365255731515019 -0.015677066746548402875749 -0.010140548599342706637128
370.000000 -0.002485657237908620378897 -0.028156025435546870594461 0.003663068188297290746908 -0.011767837419868054996130 -0.014967256872266318165621 -0.009578821203136515805010
372.000000 -0.002223126557952568877613 -0.026709996185202339313847 0.000838559401123513859129 -0.013006405298590369840062 -0.014143127153368524606680 -0.008941543935459613998140
374.000000 -0.002066591647283424777043 -0.025599955837413410075776 -0.001761612296962459904559 -0.013910445892940423440187 -0.013195959475309777808594 -0.008225431638696224442842
376.000000 -0.002007067295693431511344 -0.024789314039138095335790 -0.004081341084876880312415 -0.014452569984271487410488 -0.012125878375765657829488 -0.007433861370267589967209
378.000000 -0.002019555271320068543656 -0.024219579820653938662112 -0.006078230865155814614809 -0.014632837895745074568987 -0.010950064871276588007731 -0.006582006926970407172106
380.000000 -0.002065443042204814436125 -0.023818799549460870773609 -0.007731410369873002209895 -0.014480904746278141018156 -0.009702171445603811547609 -0.005695732735341157114417
382.000000 -0.002101080675618469551652 -0.023510129866655838509759 -0.009038710735998411668901 -0.014045395175974995441437 -0.008424868694462796583911 -0.004806131648703429459779
384.000000 -0.002084425313586214714018 -0.023216404332752314798594 -0.010009582897711045632039 -0.013381709737221848116606 -0.007162027001533247116960 -0.003944164301667852159938
386.000000 -0.001980294280974851956617 -0.022863786429941860417481 -0.010660745089079217209904 -0.012545689098175379777578 -0.005954415803476891151658 -0.003137735261041784112085
388.000000 -0.001765742853533706652885 -0.022386561496853293884435 -0.011015331501987229295692 -0.011592891386634681868961 -0.004838688640824344820712 -0.002410821567886525622348
390.000000 -0.001433832126944741512664 -0.021732553582069564362955 -0.011103938156861462016600 -0.010578854135040536427192 -0.003846023577548901128259 -0.001782354092765720985844
392.000000 -0.000995405757478992278542 -0.020867658310598054954843 -0.010963735890228911915023 -0.009554338492980140110089 -0.002997292843386564504399 -0.001263181368648319492440
394.000000 -0.000480981599174998470693 -0.019779367536138452166039 -0.010634032660407397030689 -0.008556623127047434385073 -0.002297452118624390433183 -0.000853002292296943867567
396.000000 0.000060363614547061579692 -0.018478946182113577256789 -0.010151096365358503945120 -0.007605261941815664832045 -0.001735639778284133079300 -0.000541121425037539871029
398.000000 0.000569995226686244868888 -0.016999554632553950245244 -0.009544990488621868385266 -0.006705953070173956663547 -0.001291859753749697008879 -0.000311224701895051873192
400.000000 0.000994419377093038727930 -0.015388681091064589437356 -0.008839095362769193095498 -0.005857660805281468888173 -0.000944512343545058610968 -0.000146455811972324507131
402.000000 0.001298880312357248443048 -0.013696204770637409806056 -0.008051169438567925412675 -0.005057648934276807485555 -0.000674508257861942397624 -0.000032174624031446370114
404.000000 0.001473720441736784498785 -0.011962339129033517162726 -0.007195381843109890755705 -0.004303761073306589662879 -0.000466271026205346359600 0.000043366801638673530743
406.000000 0.001530705837400951358634 -0.010214228254301824933004 -0.006284972444534843612207 -0.003595224531510277793389 -0.000307363645236522907596 0.000089360253599849560164
408.000000 0.001493379199278733028902 -0.008475982264517361100542 -0.005336470414100924833378 -0.002933131695421978095417 -0.000187806651196707746895 0.000113088648007007372821
410.000000 0.001387840656714730116009 -0.006787818437431333493115 -0.004375821270986686439830 -0.002321425520376741921669 -0.000099416077658664504281 0.000120630631393001469466
412.000000 0.001237668654130355495521 -0.005218172271148032066723 -0.003442218063848970742435 -0.001767521752950558001916 -0.000035352777078446562340 0.000117336597132784831144
414.000000 0.001063400136976162986546 -0.003848651622018995580726 -0.002583408792033801970600 -0.001281464918314941187419 0.000009925036927302982484 0.000107774861915686855237
416.000000 0.000883639407977474151956 -0.002736224135495538174745 -0.001841712111572966917641 -0.000873072389742013421111 0.000040365834164525225326 0.000095199310574876520397
418.000000 0.000714455039200996306487 -0.001888096696212974772919 -0.001241281125159318567824 -0.000548351348810326524354 0.000058458625592939649374 0.000081360602600246727180
420.000000 0.000566922429765408675967 -0.001271019673860267467508 -0.000784625450241010439362 -0.000306447454148303329892 0.000066069310095571894817 0.000067031848955281171545
422.000000 0.000445245130605671063893 -0.000836423342462486304680 -0.000456794879379756083807 -0.000138632137716948789950 0.000065311181435318021483 0.000052740072933388949122
424.000000 0.000347771532274155931869 -0.000538669458103638765407 -0.000233288556710013137699 -0.000030552562981964162992 0.000058699964205843905760 0.000039095231933279464326
426.000000 0.000270254302127020116283 -0.000341026578237992776879 -0.000088270450368189390627 0.000033254914103353798774 0.000048660053297757969635 0.000026681443600007957679
428.000000 0.000208440033100203327013 -0.000215259956568029518949 0.000000344764863971303305 0.000066080656275408153626 0.000037128393228117589908 0.000015920873897370426114
430.000000 0.000159023306389137638033 -0.000139567670434618060086 0.000049785184966386173029 0.000078077958422003251285 0.000025424469012870074875 0.000006998808801028609246
432.000000 0.000119502212420098026806 -0.000097366359766228692128 0.000072919499838208540372 0.000076727611780455653263 0.000014423930107892759311 -0.000000064326752815390858
434.000000 0.000087797249328924002461 -0.000076561122072089403466 0.000079287795575364283232 0.000067644673679818112283 0.000004722375696555050337 -0.000005362334367781471896
436.000000 0.000062249884851163796141 -0.000068663226528222330732 0.000075840267008334298691 0.000055059331662181648474 -0.000003297725054223816421 -0.000009090438849609925586
438.000000 0.000041832083319560522190 -0.000067649298717468894478 0.000067691437158356809137 0.000042080307679539679961 -0.000009465452497543532781 -0.000011516046665091100640
440.000000 0.000026115184173392116474 -0.000069297441816029464907 0.000058352804223164056224 0.000030603401006915748050 -0.000013882178794941678492 -0.000012967930708768395228
442.000000 0.000014577869508650100053 -0.000071190562577950575076 0.000049704017599193658472 0.000021388212837830882071 -0.000016813656062157565619 -0.000013728711118509878515
444.000000 0.000006494658939388589989 -0.000072318246186143730837 0.000042442931979218880825 0.000014395474365170023799 -0.000018600339079336204756 -0.000014019907671747322553
446.000000 0.000000992424760008578800 -0.000072471152949932969795 0.000036578889122623509285 0.000009268396661743449839 -0.000019547258015983538955 -0.000013995188038056290716
448.000000 -0.000002656899039114265098 -0.000071760365559437867778 0.000031951373703458077523 0.000005587080512430840638 -0.000019900658208211729350 -0.000013764106955677425602
450.000000 -0.000005009075099720246959 -0.000070362498682759110308 0.000028303051556071447375 0.000003003042050039830190 -0.000019832121014750970546 -0.000013393557620526173454
452.000000 -0.000006446292489420910766 -0.000068473458541973400470 0.000025452769909714554101 0.000001251159283182433091 -0.000019478228486311585638 -0.000012940464341139763986
454.000000 -0.000007253953363249372262 -0.000066262091819346651250 0.000023155292651745919828 0.000000078025941194380546 -0.000018941748233403692727 -0.000012442304305008326462
456.000000 -0.000007632804646447752755 -0.000063841350670207987249 0.000021304244747872343874 -0.000000663096727391530750 -0.000018291851797419950143 -0.000011922582341765650227
458.000000 -0.000007731062793017353592 -0.000061328629220277464085 0.000019751237020499436803 -0.000001140146589183954397 -0.000017583451382370582323 -0.000011400647431637509562
460.000000 -0.000007636004435769064755 -0.000058740402690686199468 0.000018424229799883157975 -0.000001439773263982519109 -0.000016839943630779430816 -0.000010878014300248585182
462.000000 -0.000007471314438395644017 -0.000056277927099175786938 0.000017250970208355847027 -0.000001611361542594959522 -0.000016087570833547745188 -0.000010363327079326510900
464.000000 -0.000007235964758707556378 -0.000053819527691505090041 0.000016217537649838581080 -0.000001699560890190910856 -0.000015348104158691813000 -0.000009867892111660217153
466.000000 -0.000006968466030918765713 -0.000051413285619846456093 0.000015291747886574423777 -0.000001729876513347756132 -0.000014618774798556044060 -0.000009384439183718328657
468.000000 -0.000006665157655584210871 -0.000049116301551084031991 0.000014412458532573286721 -0.000001739799690906366747 -0.000013913630010553765034 -0.000008921253017728931740
470.000000 -0.000006375764689631210785 -0.000046901880900895939351 0.000013610572624656303551 -0.000001709064622753302680 -0.000013233224165533339465 -0.000008476832810487015251
472.000000 -0.000006046556366668318479 -0.000044725389856778264923 0.000012880972715621244690 -0.000001667526595258073932 -0.000012591587458489230026 -0.000008062738249394308290
474.000000 -0.000005736768596370052469 -0.000042655921957091675299 0.000012176495957838985985 -0.000001634134848930114749 -0.000011978521812974204453 -0.000007666370208396789532
476.000000 -0.000005439093869065595754 -0.000040701460534694840665 0.000011516692271825009893 -0.000001583232252351876372 -0.000011390553920092322750 -0.000007286095316738145119
478.000000 -0.000005164089098505489230 -0.000038799489624571612304 0.000010913036987653642595 -0.000001529891765788010044 -0.000010828982155944413528 -0.000006922830202844377602
480.000000 -0.000004875035479281078958 -0.000036969536150837693463 0.000010340369583286306894 -0.000001476728150522571499 -0.000010310650557515269119 -0.000006591633474432776880
482.000000 -0.000004619110125479488991 -0.000035234493731805536555 0.000009806568590318182036 -0.000001415134365499047088 -0.000009813872422899485762 -0.000006274441460836167695
484.000000 -0.000004360386768315330957 -0.000033518606792653375442 0.000009328491001780221946 -0.000001360772824760807377 -0.000009339195499330074513 -0.000005970000365793216672
486.000000 -0.000004159308437826942319 -0.000031909697085996973807 0.000008857584136541849263 -0.000001292757828881112735 -0.000008891001175567542363 -0.000005684501020783818297
488.000000 -0.000003947686483080339919 -0.000030389621185620038752 0.000008406974973226085686 -0.000001229650871689543091 -0.000008460697320803141146 -0.000005410183603868860368
490.000000 -0.000003748841851646184801 -0.000028855792628147663965 0.000008020379394645377175 -0.000001165719845516037465 -0.000008051417522949298980 -0.000005149135302114126586
492.000000 -0.000003560773547692882411 -0.000027401245374494828991 0.000007661432704766384482 -0.000001104178448854881038 -0.000007654449594633551049 -0.000004894273312659643479
494.000000 -0.000003416111183500676316 -0.000026058031285772512777 0.000007326826416784993705 -0.000001041396206172289992 -0.000007284756339749155139 -0.000004658244451306532886
496.000000 -0.000003243792919418746419 -0.000024751574588755590703 0.000007008844396026500515 -0.000000974542611243305805 -0.000006936907754142605185 -0.000004437559378608718011
498.000000 -0.000003085320428835597910 -0.000023565688590088807028 0.000006671210522499450033 -0.000000918919042101441557 -0.000006597717727704130854 -0.000004220420717315560373
500.000000 -0.000002924954584471065040 -0.000022416186000434733548 0.000006350708742934698082 -0.000000878108037537290514 -0.000006277619860093479703 -0.000004016483491797351012
502.000000 -0.000002781885246303652892 -0.000021375221925027821371 0.000006033873923832828530 -0.000000823506333195008087 -0.000005965351372538469735 -0.000003816136257930931030
504.000000 -0.000002672660506670020784 -0.000020360982901787123237 0.000005766216899895364172 -0.000000755831239641123215 -0.000005670641645666238581 -0.000003628126498841505024
506.000000 -0.000002562183107684641093 -0.000019342247761134778191 0.000005509167960859006125 -0.000000707169614994932498 -0.000005390904432545964729 -0.000003447605425380407069
508.000000 -0.000002456430484523827134 -0.000018438959496510447901 0.000005243721093437323582 -0.000000680428069615146291 -0.000005130206740507547983 -0.000003280501256111488677
510.000000 -0.000002320025312945608250 -0.000017549380386232296095 0.000004985338843034311528 -0.000000649388273308104425 -0.000004881404652094492358 -0.000003121383715632418296
512.000000 -0.000002151514808028154949 -0.000016683829801432088698 0.000004730926176393041893 -0.000000630346292797413783 -0.000004655258473040132159 -0.000002978946418488675760
514.000000 -0.000002047321878034998794 -0.000015837452589074163084 0.000004525383462809669741 -0.000000593847520547061037 -0.000004433665101634483515 -0.000002838980357602032531
516.000000 -0.000001984457594298045831 -0.000015060014540108380016 0.000004345692232781938831 -0.000000536908421572432752 -0.000004208663231000864148 -0.000002693297323464428840
518.000000 -0.000001928486187039762497 -0.000014421185617449251782 0.000004129237112380925270 -0.000000499503606264356439 -0.000003995808614311511659 -0.000002555714636098701032
520.000000 -0.000001859178039260883378 -0.000013727324967443167098 0.000003949487839221980740 -0.000000469459591982734264 -0.000003805054436375885369 -0.000002433907946413224945
522.000000 -0.000001750812164901138560 -0.000013029277863638885379 0.000003765387327988985784 -0.000000448694282783638988 -0.000003629436658309959981 -0.000002323646000130269936
524.000000 -0.000001642041865383066462 -0.000012403306813817373608 0.000003605212614722506855 -0.000000418518255211587706 -0.000003461677198343947799 -0.000002218155395895661826
526.000000 -0.000001541074200659003025 -0.000011793618650290958928 0.000003446130907155370740 -0.000000380109159252154297 -0.000003288039168154065023 -0.000002106496276042591477
528.000000 -0.000001455589910444157731 -0.000011202976321876240452 0.000003294547253114873085 -0.000000341902835830465166 -0.000003130423367773750072 -0.000002006383419519859336
530.000000 -0.000001389236738136785276 -0.000010667958033729802624 0.000003155330401240548619 -0.000000310107061212288369 -0.000002983588839967942633 -0.000001914141733585736517
532.000000 -0.000001328570477326816679 -0.000010139863942065727176 0.000003017199726107344648 -0.000000289709500024343943 -0.000002846812788196769792 -0.000001827302533717600001
534.000000 -0.000001252637387163718204 -0.000009625012169523540641 0.000002890422280880486331 -0.000000262524754951175527 -0.000002709448856246722524 -0.000001739352604434076689
536.000000 -0.000001194481175619822461 -0.000009186037675741120996 0.000002775771367718605562 -0.000000235179421968937806 -0.000002582579726145561335 -0.000001658862975738560596
538.000000 -0.000001202869913433012321 -0.000008815639022708318833 0.000002652795840613857888 -0.000000204859896168789304 -0.000002448209985220188149 -0.000001570083509627385669
540.000000 -0.000001144796392058416125 -0.000008452628103920552184 0.000002506767065169088675 -0.000000200150243003909914 -0.000002335931967858841402 -0.000001498342015202794047
542.000000 -0.000001077908334140674001 -0.000008078496875108423205 0.000002376631721458817435 -0.000000195251847695427398 -0.000002231063755178002317 -0.000001432504351072664472
544.000000 -0.000001030026067467907028 -0.000007712215519977329173 0.000002270107512186398723 -0.000000184394199520802612 -0.000002124146124760108462 -0.000001363916824480765968
546.000000 -0.000000990191129372531410 -0.000007304064521043043277 0.000002182189869393265574 -0.000000163920458953894434 -0.000002021121842823201510 -0.000001297579981607224566
548.000000 -0.000000924337466012475363 -0.000006887205596319300366 0.000002094208885351331203 -0.000000160193219154436669 -0.000001927599373312713266 -0.000001238079477847637346
550.000000 -0.000000882543066906056815 -0.000006541532680745553245 0.000002022614663652007269 -0.000000145898466854158556 -0.000001837645263758226800 -0.000001179954915316716594
552.000000 -0.000000867964561857192339 -0.000006312941269050525342 0.000001895900032158889656 -0.000000143269982286767318 -0.000001748283763491191574 -0.000001121686232041416547
554.000000 -0.000000846274969192190710 -0.000006064607256735890776 0.000001805551194428903717 -0.000000128573319198380981 -0.000001663301129060384334 -0.000001067647807294110850
556.000000 -0.000000758292978132450170 -0.000005719723659493473784 0.000001713643698064481976 -0.000000139091122143375497 -0.000001593723947107248378 -0.000001024008448568146083
558.000000 -0.000000722128669394364946 -0.000005481894800952174898 0.000001619090331644246335 -0.000000139883695593621960 -0.000001523503753042250280 -0.000000980284105669556889
560.000000 -0.000000714553348371147892 -0.000005203151047198755845 0.000001568945237045294039 -0.000000120439604699992294 -0.000001453745539706622276 -0.000000936287094289763534
562.000000 -0.000000700866661641248953 -0.000004961972261580783550 0.000001514567192165069854 -0.000000104434309384495813 -0.000001387340160284779285 -0.000000894828344062241888
564.000000 -0.000000654838532017022902 -0.000004742387519166385908 0.000001460768446481423403 -0.000000092483615839553027 -0.000001323058433981488598 -0.000000853115537986383911
565.560000 -0.000000612924215013006352 -0.000004599785290551613469 0.000001380243141229961652 -0.000000104294865186784749 -0.000001270286466984577512 -0.000000817815096350481321
