0.000000 -0.000000000000000000000000 -0.000000000000000000000000 -0.000000000000000000000000 -0.000000000000000000000000 -0.000000000000000000000000 -0.000000000000000000000000
2.000000 0.000251958813491775666851 -0.005778501747628011706026 -0.004681440023213491279097 -0.002547287707101052699199 -0.000034091011098121088894 0.000112877792825273406160
4.000000 0.000958627428075373524442 -0.006937315725426518656094 -0.007394118444074140178435 -0.004456175435306316753858 0.000216462255077958865609 0.000375999168826424536374
6.000000 0.000870114007010972922290 -0.008916340971163104825448 -0.009909121896230515050275 -0.005682856647516098050343 0.000476304719490584012754 0.000591567172910497751474
8.000000 0.001071296961552473505155 -0.010709117484428997552071 -0.012337813063859304554826 -0.006639521920038346514126 0.000750404182915425516098 0.000803853550534582321149
10.000000 0.001861415429090502006784 -0.012658342051177114140348 -0.015418096369375040161076 -0.007901618009668723296990 0.001072085453297093836367 0.001043482136155584943590
12.000000 0.002718392506323392097956 -0.017901745143095296186608 -0.021651922121722615155459 -0.010374034669455552484796 0.001456020798706323445687 0.001352261653558658799010
14.000000 0.004148066364453988422167 -0.023307993780836117059252 -0.029068651873192425522108 -0.013919856309802870406034 0.001927226110950617382622 0.001746818844038015502984
16.000000 0.005815605012184432882905 -0.030717222786439273701786 -0.039735196283311263742988 -0.019254871276081515080181 0.002565904907611088643649 0.002303714478406538018057
18.000000 0.007866552399842739393132 -0.039979712508220542621640 -0.053120348079024298781903 -0.026201962094779769618658 0.003470160177889937934415 0.003079889550847575169917
20.000000 0.009430194401162900891267 -0.048902294413674676776260 -0.064850217034217894074288 -0.032316132940031869202890 0.004693880697560151235570 0.004105166660271440323693
22.000000 0.011066631786692527478211 -0.057016614423511802201006 -0.076040464985577843615161 -0.038233659786296766980307 0.005913410198219611751957 0.005113195883990988115098
24.000000 0.012704446815077659327375 -0.062544364127575524658909 -0.084508374537173608365137 -0.043155095126739609345812 0.007153574731283698744100 0.006127095547965673641433
26.000000 0.013856285631036305977526 -0.066918704515769603102804 -0.091606903450600574156937 -0.047769913491727850063384 0.008895278092085351015483 0.007577754707403390986575
28.000000 0.014493317513038190408325 -0.069716891950947740275168 -0.096330282082260090814607 -0.051522840388951031409537 0.010219934450611199358572 0.008718919854293717686122
30.000000 0.014794224299203552475124 -0.070647601355557324009915 -0.099843672852623077673684 -0.055069365084787436082081 0.011578935280313297148669 0.009890745761480182127179
32.000000 0.015149378194349095647087 -0.072242387785163342250883 -0.103149479646003780497487 -0.058489044849735161157867 0.012558009668858840027217 0.010712127445377684492600
34.000000 0.015877430222268243409367 -0.072524555786240077481786 -0.105979066746671471421770 -0.062332782363999951480427 0.013570645178981651651773 0.011596173861932583884493
36.000000 0.016638972708575613251858 -0.073032594998550914855429 -0.107992072216622339575487 -0.065843211895268469180387 0.014325822425315336977603 0.012191601586491320613481
38.000000 0.018441818838325931689814 -0.074152127349370738906842 -0.111254265078570530045354 -0.070838490380160601400661 0.014506306711417846569412 0.012318184726823893856973
40.000000 0.020165114796091860444038 -0.072219887302292576358731 -0.112460841992582119552857 -0.075390979893230111730240 0.014697945017809218096194 0.012493163921262524437839
42.000000 0.021617408666454174248628 -0.072511149967977958641363 -0.114654936582829894420321 -0.079910327199621405958041 0.015225960981658962639651 0.012964112911434989838799
44.000000 0.023445540262281298199420 -0.069783144013561018703662 -0.114569118360256391730978 -0.083731541603764073067317 0.015444894618369392827462 0.013168668694208650327138
46.000000 0.025122853514553782072749 -0.069411314004039825764636 -0.115337790174285720334879 -0.086691953282759817711600 0.016091607237858747414538 0.013663919549491506180705
48.000000 0.025746993233685778329489 -0.067255016340452528078586 -0.114285022310494741026865 -0.088426300418522021939971 0.016926104809553997598837 0.014276424375789534271242
50.000000 0.028117791783900992347300 -0.064993689254306361013924 -0.113981033778667042999366 -0.090913488893025987125363 0.017358658616741996782995 0.014549909636067006116211
52.000000 0.030024788436890072901297 -0.062038305245559345613149 -0.112144983613260904031783 -0.092479855364441476694992 0.018095252989500931750655 0.015068501449522646307155
54.000000 0.031219332279237337057776 -0.060508687249949864861431 -0.111503517017664810495603 -0.093972739970153928990015 0.019234451483353672690546 0.015964903198003092127388
56.000000 0.032695703068514804512379 -0.055244395754877662074733 -0.107297741599872056839082 -0.093048489812097151530068 0.020324249315985226660430 0.016716327281170763330298
58.000000 0.034502179144964131851658 -0.052606970350966182625729 -0.105148324368098955439166 -0.092766886945819693188753 0.020878461399432758638373 0.017049698944148775070495
60.000000 0.035835693152770145553099 -0.048698042600271350399677 -0.101009784679308975419154 -0.090660451320985907530670 0.020946665215710043306263 0.016915117251992694419327
62.000000 0.037571948491765448652213 -0.043906420959924523372830 -0.097140633093038733503199 -0.088648751296042826997024 0.020023759582103870663383 0.015877240776133155070182
64.000000 0.037136632330753212294372 -0.041867495391456642506167 -0.093776694186601963765249 -0.085838256597729728492041 0.019343294450416333163378 0.014979254409766516731306
66.000000 0.033060720347989881739981 -0.045975474885056329121813 -0.093057019348567054928267 -0.081844932412808060750997 0.018903777159693803400220 0.014119701779983145906172
68.000000 0.028213398264631969758476 -0.046850322704884310442974 -0.089507983074313637872343 -0.075473125651280933978704 0.019344332166049506283034 0.014046055079876409305006
70.000000 0.024786080325282386360719 -0.046019074001513449179157 -0.084963196975730348459166 -0.069911500766614037560842 0.020648871563454740396537 0.014797111479296437552833
72.000000 0.023112114918855810458131 -0.045833860239948211179328 -0.080356082028311764942075 -0.064222128848247198029675 0.022441844854978559159475 0.016038498986162899595520
74.000000 0.019460088132118563003514 -0.047210917537070948291067 -0.076232325572301209981596 -0.058911157228726356016590 0.024455643369881100573915 0.017504785547268260359477
76.000000 0.016553503725725070977459 -0.052680296987915660456014 -0.074673557017487790510302 -0.055234516715252271468195 0.025600979964388231868710 0.018271453803780160485282
78.000000 0.011783483511872212129434 -0.059194266216144902914564 -0.071643509129645552291343 -0.049122219400402976352549 0.026922194167174721968205 0.019065818708422443972239
80.000000 0.006663924459299100377940 -0.067276775726702472968377 -0.069817301236253459517656 -0.043358588992963471853148 0.029916765825822366764442 0.021515923712062838546455
82.000000 0.001976420379157075093990 -0.072085699806231195996276 -0.065908157802035322037071 -0.036963364406847318277549 0.031901642970978541513638 0.023002438726356381343274
84.000000 -0.001170416498540409119822 -0.076828465495064071633102 -0.062238760711522615742819 -0.030553520395866524267392 0.033190974442346074524401 0.023856244785302283678563
86.000000 -0.003693389811811761524324 -0.076766993149099002624602 -0.054090449013619923412932 -0.021757425393754161596638 0.033990897648495166372129 0.024216382713789012109951
88.000000 -0.004782930259777017079070 -0.076693220591859789792011 -0.046649011035443714578985 -0.013111379544461586321713 0.034539932405541873272625 0.024331571198794570837221
90.000000 -0.003568462156707954014562 -0.074863041268957125629058 -0.039019385855322087641728 -0.005858251421210029612208 0.034333647864730344745343 0.023852485338546343396349
92.000000 -0.003141674690996358338541 -0.073665287090212069887052 -0.032345304442357059038216 0.000511653838495627357429 0.033870212933986863779179 0.023181578126268889000761
94.000000 -0.002160208178783338227313 -0.067731858935791103282220 -0.022572740098168855849003 0.007971004509323796963227 0.033278064424234816975900 0.022382329210572170230531
96.000000 -0.000991397741286431525079 -0.062157314638893047809010 -0.013815940957680423323284 0.014643055638239900473341 0.032349775505273604958578 0.021325557633967203580161
98.000000 0.000055427490071337734976 -0.054006215341374730343205 -0.004512728357477751098270 0.020018773662338004010186 0.030559888470339972160739 0.019721169383525482404762
100.000000 0.001177200650541312216754 -0.045328887760293277986445 0.004219376524154687044255 0.024091464573820518813019 0.027809598870261315745056 0.017498067091494932251416
102.000000 0.003019681179538046510158 -0.036159487962814776396137 0.011342220687855505273367 0.026172823622018021733071 0.024581996702158458167897 0.015021703113219930791900
104.000000 0.005550176785768212196770 -0.027936425577238969270022 0.016968595633850457743419 0.027012106118579470165342 0.020769764066681396103009 0.012192774782253158055711
106.000000 0.008849509432312430839973 -0.019418639737507153997242 0.022066715649932129583721 0.027239929651016799028174 0.016651158187414666356219 0.009211908987703803716740
108.000000 0.010806575536535989803810 -0.011593760293875373518224 0.025862307417337474652053 0.026629206722180710081860 0.012607709544109274926726 0.006351670824345014357282
110.000000 0.010637621266525044971818 -0.006033976434399190152957 0.027778340460741984818682 0.025146864012232639923328 0.009194962267814580508807 0.004069484653530884739336
112.000000 0.010284611248628351340417 -0.000740833867887681412831 0.028871432078743770877072 0.023675911347499790232662 0.006691549068004573955215 0.002434647766096857245816
114.000000 0.009343865058843181872761 0.003661186251277363801204 0.029422785358459008914211 0.022347917100932292167048 0.004837105810197625532787 0.001288281839604936418464
116.000000 0.006720389646638435729442 0.006828872763528366120200 0.029410402177601352446956 0.021439974131934810830380 0.003916980996580545111574 0.000791732896845993914907
118.000000 0.001229760430472908068478 0.009167307731759496286505 0.029215700179678578268794 0.020761467176015964419822 0.003258321838139101311871 0.000507569152780111619398
120.000000 -0.003112332661522043946584 0.011462245874355096383890 0.029163436040818065120295 0.020232675918722464736277 0.002777194737296579448577 0.000342456788213709839141
122.000000 -0.006715067536804984922594 0.012335019059913607947232 0.028510919703167408867373 0.019486031178143056741270 0.002321624120401152586296 0.000190675385590649402621
124.000000 -0.009492999050207959546577 0.013637812499780885971967 0.027974492804331233669624 0.018632883461062850483092 0.001823562701907297835258 0.000016423183493596411029
126.000000 -0.009716472905373033791543 0.013832287790911548461259 0.026697741977890446229971 0.017454258029450522154979 0.001357184553898432973970 -0.000165461600847100121945
128.000000 -0.008698464273025076007317 0.014218780974884697582139 0.025114513259451388960120 0.015949750321648518969209 0.000789462732384148767849 -0.000421812274049409500869
130.000000 -0.007721792236175305766677 0.013860274672925342737129 0.023013538437973025951866 0.014387951798577543888191 0.000369804874042464759576 -0.000575378388466107676055
132.000000 -0.006628059621528734242368 0.012932624844830327426326 0.020648796287634208629358 0.012730361411269160154536 -0.000044006699930587608307 -0.000724565305659848925279
134.000000 -0.005652523721020778248170 0.010823908555645153292679 0.017581332789232118757328 0.010966646928820324505272 -0.000358270170250150888063 -0.000803752955702800777477
136.000000 -0.004743317655619478344364 0.007495551360188934704454 0.013659872295283871992955 0.008883577416434864162942 -0.000631153866291951225372 -0.000831772833839036058144
138.000000 -0.003940758676081825874482 0.005261538530830438264996 0.010674292589738119604870 0.007145538577918089141738 -0.000861830349828834364756 -0.000873533840872534592982
140.000000 -0.003086991239638035410681 0.004453220471250405806951 0.008630602405505885185710 0.005661280915451583767295 -0.001103514332336426708239 -0.000950914453488891373359
142.000000 -0.002321786286639916825625 0.004153701107542811556128 0.007030602270165999326257 0.004428524925947354036471 -0.001292072976657566898279 -0.001014791834486344739019
144.000000 -0.001818061792890704421108 0.003922784088105299438176 0.005884030271462461179899 0.003599028953766794918651 -0.001420004692370386819092 -0.001062129578600258614923
146.000000 -0.001560905782776560602604 0.003667736058786016852679 0.005093985907885758418479 0.003060632017235352664297 -0.001448276176089017142773 -0.001043426101378035599290
148.000000 -0.001560030205237396749504 0.003846602058444882361182 0.005241800382161769696066 0.003172947785350696547901 -0.001444922306636928482221 -0.001044535342247489544815
150.000000 -0.001529756485654379296463 0.003991485949741822858439 0.005339509825734400222386 0.003252555856956294844107 -0.001432713717029765378846 -0.001034675151485830264450
152.000000 -0.001479908346318379837661 0.004123023820539828757092 0.005419176436379127652365 0.003325313535802723683560 -0.001404273463092552088824 -0.001009476316436988627828
154.000000 -0.001439392795076483658884 0.004213812675852864932102 0.005461271840101263909395 0.003370076513090596980610 -0.001410268434559448216467 -0.001018299865088918105746
156.000000 -0.001427565200708028536267 0.004263357812365670129751 0.005474226994078539541844 0.003401461656613337641158 -0.001413120259729568495982 -0.001024459524207484411445
158.000000 -0.001472007060530908847257 0.004258178334293266295574 0.005453776796946165766888 0.003424493019017955421079 -0.001409211951702838338737 -0.001027067556320251364918
160.000000 -0.001385614756016568648728 0.004365974818066254391213 0.005514960151646797724412 0.003472516923901156678939 -0.001430167402252781848337 -0.001051257089421437588422
162.000000 -0.001305071185133667823267 0.004465409790653023132390 0.005571875362105170939597 0.003508379667630201394907 -0.001452667971642645832961 -0.001072285299127301782737
164.000000 -0.001256538608810137038624 0.004540030410985332158524 0.005617116772042362454753 0.003538494980408650632253 -0.001463746747847082365149 -0.001079987921341487829355
166.000000 -0.001240252083587469475803 0.004587234115040817947206 0.005647204437270196032694 0.003558096175864945177880 -0.001477470532233223247595 -0.001088471196831882316716
168.000000 -0.001243969102072288055935 0.004618941120151271416405 0.005670626487441742143158 0.003571442653365756655925 -0.001495696711301712326925 -0.001099965552947959829613
170.000000 -0.001248965138641178283102 0.004655998005024328777191 0.005704516801341513732027 0.003592012873152395768112 -0.001512991958309322943627 -0.001111232860330355325801
172.000000 -0.001255570611516499020255 0.004697943017190434403241 0.005747905211430669181194 0.003619037294676886052508 -0.001529812788849706011937 -0.001122573975864988617135
174.000000 -0.001263873878052727524682 0.004744463379021192882268 0.005799958542270340633440 0.003651849863549371747601 -0.001546436439176626697137 -0.001134119578294581981784
176.000000 -0.001273901054469987140921 0.004795269075579192651071 0.005859921980877203818994 0.003689868196849637946300 -0.001563081269179446113060 -0.001145962697418402044536
178.000000 -0.001285643356290162462804 0.004850120996731739110575 0.005927144894603140340417 0.003732596889197496367596 -0.001579926978759902062369 -0.001158177668486665362960
180.000000 -0.001299079998958621411098 0.004908832487378233383479 0.006001102559712533611458 0.003779646662814890867299 -0.001597120891970255302308 -0.001170825918577822000524
182.000000 -0.001314173181976641515203 0.004971291389899697675536 0.006081401740090999069599 0.003830725315523235245674 -0.001614785587331464804944 -0.001183960777425428247123
184.000000 -0.001330877875614196442083 0.005037451510823352449076 0.006167772748970058900586 0.003885631355575785029349 -0.001633024443948456402853 -0.001197629925980739536151
186.000000 -0.001349156597294205858426 0.005107319328420658645362 0.006260056733419900286408 0.003944245688231430048420 -0.001651925240089516461542 -0.001211877041027423305281
188.000000 -0.001368977378979485117969 0.005180961067404034163519 0.006358197407146250201837 0.004006517883204416090315 -0.001671566073634412567112 -0.001226744138198050757677
190.000000 -0.001390314157443773212738 0.005258487101401639746134 0.006462222463009847581161 0.004072455779343068377196 -0.001692018602844124006840 -0.001242273273355159590031
192.000000 -0.001413158263758940115171 0.005340047518311454195772 0.006572237545435445811581 0.004142120469179707241414 -0.001713348088461108401429 -0.001258505143702116219062
194.000000 -0.001437513821011844519088 0.005425826946818163715180 0.006688413960617751834181 0.004215614016764002852655 -0.001735620389363460094878 -0.001275483675611386279181
196.000000 -0.001463399265063815724713 0.005516037250163279524739 0.006810979614057194840571 0.004293077418287401421371 -0.001758900054156832320693 -0.001293253819286487677973
198.000000 -0.001490846779763115503500 0.005610930257159018122448 0.006940221723195424442798 0.004374686335137179318822 -0.001783252880037656390444 -0.001311863031738698176162
200.000000 -0.001519905575861439043367 0.005710773341459030906508 0.007076471650058797566163 0.004460647208963540791271 -0.001808746551651799292643 -0.001331361261321497299961
202.000000 -0.001550632215792451754771 0.005815866742683427174920 0.007220108300744367164914 0.004551193167066663707032 -0.001835453283392824959733 -0.001351802867105608707554
204.000000 -0.001583103026490932912357 0.005926540199046067061706 0.007371558961345729861503 0.004646587748061931609500 -0.001863447946392974684943 -0.001373244643703380122451
206.000000 -0.001617404368379240977432 0.006043147522076564720495 0.007531295828852993534674 0.004747123647595489180639 -0.001892810193570172673169 -0.001395747880414119129408
208.000000 -0.001653635293350758702496 0.006166073083364460513667 0.007699833504563839171875 0.004853118434575188350211 -0.001923624644417620474512 -0.001419377702560884347421
210.000000 -0.001691906126137975681020 0.006295732487888903820827 0.007877736387322765640451 0.004964919020593931003882 -0.001955983630673743811634 -0.001444205549262424876852
212.000000 -0.001732343803482874321914 0.006432573720783317169913 0.008065616413891602692887 0.005082903158079074730502 -0.001989983909209178721683 -0.001470306475957726573267
214.000000 -0.001775084958139909767014 0.006577073224848658042352 0.008264132064858306647714 0.005207478467098267810309 -0.002025728887507053169181 -0.001497760761133855702057
216.000000 -0.001820280096688838868124 0.006729746898503401013325 0.008473997053629923892348 0.005339084858385711486461 -0.002063331388239046659816 -0.001526656039547460942327
218.000000 -0.001868091291816101557136 0.006891151920201581473902 0.008695979602064581731602 0.005478196323752694205100 -0.002102910833709478993087 -0.001557085230155106497785
220.000000 -0.001918700703754302842874 0.007061872987169269359764 0.008930899332640242563319 0.005625321248082112111921 -0.002144594737405746374959 -0.001589147253101646584464
222.000000 -0.001972301506420361463801 0.007242543904244236503687 0.009179640068250883438994 0.005781006878246792990428 -0.002188521284523959210128 -0.001622949490018899204938
224.000000 -0.002029101290377153914146 0.007433837720255461606333 0.009443144964079561512471 0.005945840406818221450524 -0.002234836604945864262789 -0.001658605503776953158171
226.000000 -0.002089325675210646025143 0.007636468493522873164647 0.009722417353721854449411 0.006120447207779361638302 -0.002283698940451892381298 -0.001696237969440171113045
228.000000 -0.002153216042162667785698 0.007851196080349166078749 0.010018526131296102282819 0.006305495730197274543982 -0.002335276028095096840370 -0.001735976771289465207110
230.000000 -0.002221032577789719669042 0.008078819064409532499371 0.010332601351027590960707 0.006501696650250242924540 -0.002389746905449378119174 -0.001777960467607544569474
232.000000 -0.002293051722396685816741 0.008320185614038374741219 0.010665841001191710482598 0.006709805142707107525335 -0.002447302851688166764471 -0.001822336778182817368030
234.000000 -0.002369571563625851289697 0.008576181648221955708400 0.011019505057813549706025 0.006930619892980901738944 -0.002508147024667287811051 -0.001869262320219374677935
236.000000 -0.002450909725730644663638 0.008847750668536909571249 0.011394928473024947684911 0.007164987469164649236397 -0.002572496910733255374298 -0.001918904333793304550770
238.000000 -0.002537407056927649430522 0.009135883234802341656966 0.011793519732080370854277 0.007413804588178095171525 -0.002640581851055646446513 -0.001971438956410960247762
240.000000 -0.002629433979928817808475 0.009441639930185458107204 0.012216779348469939195376 0.007678023032177449039293 -0.002712647808771880518497 -0.002027054462768925098548
242.000000 -0.002727387544505257676447 0.009766165899443528600199 0.012666315884622879328614 0.007958656081812552976484 -0.002788957630938801966758 -0.002085951824532828683539
244.000000 -0.002831706359195695129477 0.010110720052902893995039 0.013143884750810814338040 0.008256797468920166332973 -0.002869793495456499001633 -0.002148346430589535144273
246.000000 -0.002942875819658253341154 0.010476708911850282288092 0.013651430146634358289703 0.008573637748987715870297 -0.002955461453138884427017 -0.002214471672062531034525
248.000000 -0.003061436249433089912958 0.010865755356470966838667 0.014191157013789638952073 0.008910496495701641581078 -0.003046295743091986026746 -0.002284582612213210527780
250.000000 -0.003188002370388172065918 0.011279750790086404133028 0.014765611600664948002692 0.009268861537199423600297 -0.003142666457468596546976 -0.002358962166693355771291
252.000000 -0.003323273239725432932901 0.011720937813164184274073 0.015377777764766122417517 0.009650435569691556692007 -0.003244986338800136000532 -0.002437926625253360787132
254.000000 -0.003468050149338391344861 0.012191979301865643950387 0.016031175559383485651477 0.010057190319944096096316 -0.003353721632610802763641 -0.002521834653793274434730
256.000000 -0.003623246736327925387328 0.012696017857349275320678 0.016729947649660559944040 0.010491416470546046507684 -0.003469400075803380154027 -0.002611093703409473991417
258.000000 -0.003789895544565388598585 0.013236692165042928531760 0.017478905302319828335422 0.010955763768883903033768 -0.003592621177014003984451 -0.002706168272400056185739
260.000000 -0.003969148938661349636237 0.013818112472059851728035 0.018283521794960993361867 0.011453261724634615503771 -0.003724060868252619498076 -0.002807583530579854137754
262.000000 -0.004162258071690121130626 0.014444742438919402557906 0.019149822113031116088688 0.011987297091424592779263 -0.003864473913674611443153 -0.002915926485099345349949
264.000000 -0.004370551009810530289357 0.015121185853071622551269 0.020084161707994502982233 0.012561547705105724839769 -0.004014686822336973638647 -0.003031839612663771426487
266.000000 -0.004595386895787575108618 0.015851863531153718989142 0.021092865943986321974890 0.013179848160789705419083 -0.004175583088564486546057 -0.003156007270784549467030
268.000000 -0.004838110207677853713548 0.016640627246164968466857 0.022181769033635442139873 0.013845999990420918349110 -0.004348077405048844830404 -0.003289133243817390396535
270.000000 -0.005099994270051120409670 0.017490328164776459268781 0.023355681670625284135356 0.014563533454170992514909 -0.004533081719508536520935 -0.003431911291162273707628
272.000000 -0.005382203171834014365782 0.018402441369698152584533 0.024617896194752332539313 0.015335464633908651305161 -0.004731466793214123868483 -0.003584992302786461221276
274.000000 -0.005685772921448976544023 0.019376869821880644828571 0.025969867344218126870015 0.016164106222944570057098 -0.004944022203654752957436 -0.003748951004870412599679
276.000000 -0.006011627611716121623309 0.020412048566760737644543 0.027411219150403374339442 0.017050998238169631088246 -0.005171426605869069992316 -0.003924262222132096113170
278.000000 -0.006360645703153195232304 0.021505365216114687154647 0.028940147831124526239810 0.017997014342839897510506 -0.005414238007923876001837 -0.004111295119754048744964
280.000000 -0.006733768549542674605735 0.022653935128875903048939 0.030554239200124348047050 0.019002638843402797769189 -0.005672913285668516533700 -0.004310331381048990682936
282.000000 -0.007132157154143707426808 0.023855583659411021962837 0.032251593056928748448620 0.020068389820572150872291 -0.005947861326257602131162 -0.004521611254027477037887
284.000000 -0.007557377992832447002880 0.025109987907703322507214 0.034032167404991285619698 0.021195336634480779064438 -0.006239536916172829829341 -0.004745411363211650586369
286.000000 -0.008011599655685479326461 0.026419876347232806867993 0.035899227116458223840745 0.022385668884817914309204 -0.006548565801369542020705 -0.004982146658190703125690
288.000000 -0.008497781068677982829751 0.027792270137753590647511 0.037860863446806440613113 0.023643314530598071032674 -0.006875892214727951333442 -0.005232489599683392243745
290.000000 -0.009019789212169445485889 0.029239731705089245378248 0.039931543451729827054475 0.024974634403070794519408 -0.007222925866217543705572 -0.005497489260673738172003
292.000000 -0.009582344836102613810924 0.030781446534063311437635 0.042133545540222736014435 0.026389236895537480920293 -0.007591639163211575183632 -0.005778654045266231990829
294.000000 -0.010190514267003019863167 0.032443370187939434001745 0.044497544815833310616338 0.027900806176893541699080 -0.007984524893681231236253 -0.006077930242675519054152
296.000000 -0.010848410822748058221499 0.034255204659843149772591 0.047060208008083720399028 0.029527297069503646853583 -0.008404292856122439273059 -0.006397478363159700941176
298.000000 -0.011557180910283014127482 0.036239281140111628820577 0.049853870132882283083831 0.031288350996734548559175 -0.008853303328064382818341 -0.006739214707394540829211
300.000000 -0.012313354312071988355681 0.038386319823305939391567 0.052882309500397912949143 0.033196243092685616404847 -0.009332916010127870892754 -0.007104186299854976967272
302.000000 -0.013108169145175260078551 0.040624401337455637306384 0.056085188218205475618738 0.035238939947406865138557 -0.009842742515584658111183 -0.007491741929221186653554
304.000000 -0.013926768398929107589668 0.042806292673718500385593 0.059312808205755726542741 0.037362803826214055491484 -0.010379453472169635278033 -0.007898399173266613254585
306.000000 -0.014747305081832204690095 0.044743804531656349021684 0.062346676987362278921090 0.039473217589591443055230 -0.010935519997373951972541 -0.008317047792364916022900
308.000000 -0.015543640705683491737288 0.046281125989687747768198 0.064974954733433745723836 0.041465040255688860593164 -0.011499120897030421992180 -0.008737499208498393163391
310.000000 -0.016293188761821789795059 0.047348272468761248843450 0.067067600091873860734815 0.043262091695751792030933 -0.012055893034760487708690 -0.009148306914256719088452
312.000000 -0.016983855299422635082296 0.047954106731493188753301 0.068590850639796197008025 0.044831532146503823288430 -0.012592031972179652810073 -0.009538992497687560911945
314.000000 -0.017613703247812546176521 0.048145872097891749541443 0.069571777615096350166901 0.046170177512204174652410 -0.013097259347015825781124 -0.009901888976606747910791
316.000000 -0.018184842983346126421562 0.047977708133290129788318 0.070058416862549946491079 0.047283321567477075431096 -0.013566253717417955243496 -0.010233031718648883529044
318.000000 -0.018696953998247865108562 0.047500078928266659117341 0.070097739491358918018094 0.048170015653204147076938 -0.013998607188185969996130 -0.010532153700649983171789
320.000000 -0.019143322024478087034494 0.046761735924167366351689 0.069729667982827800432055 0.048817521789648418706342 -0.014397988741181640820477 -0.010802064067679624168039
322.000000 -0.019510622173695431336160 0.045813056393403703281386 0.068988739382702946034698 0.049203633128912578620362 -0.014770501602535785271031 -0.011047263165801398526744
324.000000 -0.019783103487865077996233 0.044704362313940142203972 0.067907047762725589179489 0.049304003299443122099177 -0.015122442410087732697632 -0.011272098200048553603980
326.000000 -0.019948988007487296336695 0.043480879702253089069686 0.066515688372636688763251 0.049099866471174265225574 -0.015458273527116817014360 -0.011479277198506467744243
328.000000 -0.020003654810249169027081 0.042180158810726370299804 0.064844456877233724867438 0.048581050117026541856902 -0.015779553996455478875882 -0.011669255968816041185709
330.000000 -0.019945054571774947088647 0.040835178774870396767316 0.062921123584786645133171 0.047742576448462165084052 -0.016085252555754079445416 -0.011840625473106446835514
332.000000 -0.019765081050971425313811 0.039479531697841359350054 0.060771306559041143868782 0.046579332978193388470345 -0.016372778439726658888942 -0.011990900349295978075115
334.000000 -0.019446593237925236669073 0.038149313295578329841007 0.058419465881358399739209 0.045085800706885295618953 -0.016637960862269166040228 -0.012116377448293963806081
336.000000 -0.018969469513829995133136 0.036881557604629383595451 0.055891193069565206497096 0.043261851164729074603610 -0.016874193077143634367232 -0.012211393055720436151557
338.000000 -0.018319941263869630315719 0.035708755482499458799861 0.053213287668126330043350 0.041118186712854283559881 -0.017073751448784479922693 -0.012269611169030011921244
340.000000 -0.017495045981338001178651 0.034651378860058937303457 0.050410894811009840377203 0.038677797185052591177890 -0.017232980862008660805085 -0.012288797748195511364000
342.000000 -0.016501263746582402192065 0.033715199296808433249151 0.047505817109553045984871 0.035974819527765024285149 -0.017358142863621896234694 -0.012276179800178636802865
344.000000 -0.015354523473384021348132 0.032895192850214097224359 0.044517943893953026979204 0.033053141943856806372892 -0.017465580507128430909347 -0.012248750684243631461912
346.000000 -0.014085743312405753571714 0.032179205303796559745066 0.041466750397998186628001 0.029965994362104078629905 -0.017572452470726675211043 -0.012225134927936837092588
348.000000 -0.012743363759528494524864 0.031551775627327818818380 0.038372844718583903889098 0.026774001550976801039328 -0.017683632257092515155383 -0.012213557371519625713296
350.000000 -0.011382924854807973530368 0.030997375942434835655037 0.035258008997806955520105 0.023537415189756171612911 -0.017786504532183975563209 -0.012206259315402171947151
352.000000 -0.010051557724763239901056 0.030493226538536130632018 0.032138351206813998983680 0.020304445003648311646183 -0.017858258950781406848574 -0.012185261829669280508881
354.000000 -0.008782086517820135440626 0.029995611577255786722729 0.029014991015929070955481 0.017104589975038591437295 -0.017877187995773397011234 -0.012132455361033184573771
356.000000 -0.007595886165948018825533 0.029438901839373393665156 0.025874407098535768395609 0.013952265227615272269457 -0.017828191389896382718083 -0.012034940813348465882271
358.000000 -0.006507682158220123511128 0.028750738681136252944404 0.022699137296592428875153 0.010856369134578335716723 -0.017701574829950817574487 -0.011884286230930449224097
360.000000 -0.005529760161037576386700 0.027870683927586039491109 0.019480888768357022128308 0.007830153685887280418099 -0.017489580908912852330594 -0.011673582674092646341291
362.000000 -0.004672834211252144091808 0.026763109696383992341939 0.016230613704733970470429 0.004898767547661497800959 -0.017185042475941374184867 -0.011396491589401071264920
364.000000 -0.003942925631392579614853 0.025419846447467576294743 0.012980870068133410627498 0.002101089210564502894607 -0.016782897754134350198907 -0.011048999422624701180484
366.000000 -0.003339351276913206292146 0.023848557659750573012314 0.009775724997366350491057 -0.000517070563631474833764 -0.016280833452957971241304 -0.010630242196113862812590
368.000000 -0.002856156405916833885411 0.022058671401205501294562 0.006656986981939018964416 -0.002912781887467148951576 -0.015677066746548402875749 -0.010140548599342706637128
370.000000 -0.002485657237908620378897 0.020062617811827151981241 0.003663068188297290746908 -0.005047675098755411565721 -0.014967256872266318165621 -0.009578821203136515805010
372.000000 -0.002223126557952568877613 0.017887533251279348622820 0.000838559401123513859129 -0.006882191418771975606472 -0.014143127153368524606680 -0.008941543935459613998140
374.000000 -0.002066591647283424777043 0.015581417908276174941196 -0.001761612296962459904559 -0.008375398397603510056153 -0.013195959475309777808594 -0.008225431638696224442842
376.000000 -0.002007067295693431511344 0.013208247502631668274242 -0.004081341084876880312415 -0.009497485124668195860531 -0.012125878375765657829488 -0.007433861370267589967209
378.000000 -0.002019555271320068543656 0.010836278642865694241126 -0.006078230865155814614809 -0.010244618682556471886413 -0.010950064871276588007731 -0.006582006926970407172106
380.000000 -0.002065443042204814436125 0.008527328830467603357213 -0.007731410369873002209895 -0.010641198858856473069556 -0.009702171445603811547609 -0.005695732735341157114417
382.000000 -0.002101080675618469551652 0.006333204978453015054907 -0.009038710735998411668901 -0.010729943132555201656952 -0.008424868694462796583911 -0.004806131648703429459779
384.000000 -0.002084425313586214714018 0.004297619926319064774523 -0.010009582897711045632039 -0.010560317465225659699923 -0.007162027001533247116960 -0.003944164301667852159938
386.000000 -0.001980294280974851956617 0.002457505610599977283193 -0.010660745089079217209904 -0.010182478764975078089350 -0.005954415803476891151658 -0.003137735261041784112085
388.000000 -0.001765742853533706652885 0.000842045911722605648284 -0.011015331501987229295692 -0.009646478323067217072739 -0.004838688640824344820712 -0.002410821567886525622348
390.000000 -0.001433832126944741512664 -0.000529796348826992919735 -0.011103938156861462016600 -0.009002840201586899751551 -0.003846023577548901128259 -0.001782354092765720985844
392.000000 -0.000995405757478992278542 -0.001651044431309250416773 -0.010963735890228911915023 -0.008299115188278288063328 -0.002997292843386564504399 -0.001263181368648319492440
394.000000 -0.000480981599174998470693 -0.002526130336929314004757 -0.010634032660407397030689 -0.007572712173453019848801 -0.002297452118624390433183 -0.000853002292296943867567
396.000000 0.000060363614547061579692 -0.003168317436582066427136 -0.010151096365358503945120 -0.006846737507434779400339 -0.001735639778284133079300 -0.000541121425037539871029
398.000000 0.000569995226686244868888 -0.003595636615224928871876 -0.009544990488621868385266 -0.006132247252632189865595 -0.001291859753749697008879 -0.000311224701895051873192
400.000000 0.000994419377093038727930 -0.003826973900924706805532 -0.008839095362769193095498 -0.005433621789366209139938 -0.000944512343545058610968 -0.000146455811972324507131
402.000000 0.001298880312357248443048 -0.003879282125470815984630 -0.008051169438567925412675 -0.004752777647448799130947 -0.000674508257861942397624 -0.000032174624031446370114
404.000000 0.001473720441736784498785 -0.003766262052275797661549 -0.007195381843109890755705 -0.004091436308249883462007 -0.000466271026205346359600 0.000043366801638673530743
406.000000 0.001530705837400951358634 -0.003499826946350640365091 -0.006284972444534843612207 -0.003452178787386103123863 -0.000307363645236522907596 0.000089360253599849560164
408.000000 0.001493379199278733028902 -0.003096373709475618799664 -0.005336470414100924833378 -0.002839244788795015298627 -0.000187806651196707746895 0.000113088648007007372821
410.000000 0.001387840656714730116009 -0.002587503322211552256316 -0.004375821270986686439830 -0.002259900437901446890870 -0.000099416077658664504281 0.000120630631393001469466
412.000000 0.001237668654130355495521 -0.002026660375928821498925 -0.003442218063848970742435 -0.001725305753588836409421 -0.000035352777078446562340 0.000117336597132784831144
414.000000 0.001063400136976162986546 -0.001480052165042482215096 -0.002583408792033801970600 -0.001249498913482983628032 0.000009925036927302982484 0.000107774861915686855237
416.000000 0.000883639407977474151956 -0.001003309045097177699957 -0.001841712111572966917641 -0.000845863257170506653397 0.000040365834164525225326 0.000095199310574876520397
418.000000 0.000714455039200996306487 -0.000624087863509507336998 -0.001241281125159318567824 -0.000523003849252935519576 0.000058458625592939649374 0.000081360602600246727180
420.000000 0.000566922429765408675967 -0.000343382778615984336074 -0.000784625450241010439362 -0.000281651825706511686580 0.000066069310095571894817 0.000067031848955281171545
422.000000 0.000445245130605671063893 -0.000147371770883809297039 -0.000456794879379756083807 -0.000113938233783145273547 0.000065311181435318021483 0.000052740072933388949122
424.000000 0.000347771532274155931869 -0.000018050086072820618720 -0.000233288556710013137699 -0.000005933000874537706874 0.000058699964205843905760 0.000039095231933279464326
426.000000 0.000270254302127020116283 0.000061406384933707252086 -0.000088270450368189390627 0.000057651876785240501648 0.000048660053297757969635 0.000026681443600007957679
428.000000 0.000208440033100203327013 0.000104819032808706977819 0.000000344764863971303305 0.000090051046282198284206 0.000037128393228117589908 0.000015920873897370426114
430.000000 0.000159023306389137638033 0.000123322364983377623327 0.000049785184966386173029 0.000101439195736355552285 0.000025424469012870074875 0.000006998808801028609246
432.000000 0.000119502212420098026806 0.000125531932369961715277 0.000072919499838208540372 0.000099335730519871967320 0.000014423930107892759311 -0.000000064326752815390858
434.000000 0.000087797249328924002461 0.000117887834532996369202 0.000079287795575364283232 0.000089384830732565782635 0.000004722375696555050337 -0.000005362334367781471896
436.000000 0.000062249884851163796141 0.000105043761687720034817 0.000075840267008334298691 0.000075832187385620287230 -0.000003297725054223816421 -0.000009090438849609925586
438.000000 0.000041832083319560522190 0.000090495583024784951318 0.000067691437158356809137 0.000061821503839030016452 -0.000009465452497543532781 -0.000011516046665091100640
440.000000 0.000026115184173392116474 0.000076760206616756110906 0.000058352804223164056224 0.000049309288975997582233 -0.000013882178794941678492 -0.000012967930708768395228
442.000000 0.000014577869508650100053 0.000065102282779558139211 0.000049704017599193658472 0.000039099372260306632012 -0.000016813656062157565619 -0.000013728711118509878515
444.000000 0.000006494658939388589989 0.000055764744905652375944 0.000042442931979218880825 0.000031178534778163238806 -0.000018600339079336204756 -0.000014019907671747322553
446.000000 0.000000992424760008578800 0.000048462065645493636757 0.000036578889122623509285 0.000025187324674598649595 -0.000019547258015983538955 -0.000013995188038056290716
448.000000 -0.000002656899039114265098 0.000042810320994295310868 0.000031951373703458077523 0.000020703075009595849895 -0.000019900658208211729350 -0.000013764106955677425602
450.000000 -0.000005009075099720246959 0.000038397772886172473175 0.000028303051556071447375 0.000017366552312882335273 -0.000019832121014750970546 -0.000013393557620526173454
452.000000 -0.000006446292489420910766 0.000034941031945313368165 0.000025452769909714554101 0.000014910511161674095868 -0.000019478228486311585638 -0.000012940464341139763986
454.000000 -0.000007253953363249372262 0.000032146208257749702504 0.000023155292651745919828 0.000013070914930072109002 -0.000018941748233403692727 -0.000012442304305008326462
456.000000 -0.000007632804646447752755 0.000029859826547888932937 0.000021304244747872343874 0.000011700485927760623220 -0.000018291851797419950143 -0.000011922582341765650227
458.000000 -0.000007731062793017353592 0.000027933153981488433395 0.000019751237020499436803 0.000010625438812353779110 -0.000017583451382370582323 -0.000011400647431637509562
460.000000 -0.000007636004435769064755 0.000026278678645675539269 0.000018424229799883157975 0.000009757382171144878818 -0.000016839943630779430816 -0.000010878014300248585182
462.000000 -0.000007471314438395644017 0.000024747435227183345785 0.000017250970208355847027 0.000009044880768355867458 -0.000016087570833547745188 -0.000010363327079326510900
464.000000 -0.000007235964758707556378 0.000023407519953398229779 0.000016217537649838581080 0.000008442088082399811194 -0.000015348104158691813000 -0.000009867892111660217153
466.000000 -0.000006968466030918765713 0.000022195625543891113972 0.000015291747886574423777 0.000007920369944944109526 -0.000014618774798556044060 -0.000009384439183718328657
468.000000 -0.000006665157655584210871 0.000021014175780368074070 0.000014412458532573286721 0.000007439788592769512093 -0.000013913630010553765034 -0.000008921253017728931740
470.000000 -0.000006375764689631210785 0.000019907755938244032991 0.000013610572624656303551 0.000007022861754815909666 -0.000013233224165533339465 -0.000008476832810487015251
472.000000 -0.000006046556366668318479 0.000018911874366727529000 0.000012880972715621244690 0.000006640618750736654430 -0.000012591587458489230026 -0.000008062738249394308290
474.000000 -0.000005736768596370052469 0.000017946248810056891857 0.000012176495957838985985 0.000006266151599846180522 -0.000011978521812974204453 -0.000007666370208396789532
476.000000 -0.000005439093869065595754 0.000017011200002990894373 0.000011516692271825009893 0.000005930464883119933088 -0.000011390553920092322750 -0.000007286095316738145119
478.000000 -0.000005164089098505489230 0.000016148230935048744965 0.000010913036987653642595 0.000005617598860422018818 -0.000010828982155944413528 -0.000006922830202844377602
480.000000 -0.000004875035479281078958 0.000015329991399511345751 0.000010340369583286306894 0.000005324037393327117970 -0.000010310650557515269119 -0.000006591633474432776880
482.000000 -0.000004619110125479488991 0.000014538013083674965510 0.000009806568590318182036 0.000005056837169061455692 -0.000009813872422899485762 -0.000006274441460836167695
484.000000 -0.000004360386768315330957 0.000013852808375700913994 0.000009328491001780221946 0.000004799967655144980572 -0.000009339195499330074513 -0.000005970000365793216672
486.000000 -0.000004159308437826942319 0.000013163907926009857377 0.000008857584136541849263 0.000004568893286975851406 -0.000008891001175567542363 -0.000005684501020783818297
488.000000 -0.000003947686483080339919 0.000012478238725229671283 0.000008406974973226085686 0.000004345335343127987227 -0.000008460697320803141146 -0.000005410183603868860368
490.000000 -0.000003748841851646184801 0.000011917721977371492390 0.000008020379394645377175 0.000004141085882323325469 -0.000008051417522949298980 -0.000005149135302114126586
492.000000 -0.000003560773547692882411 0.000011399835939358840138 0.000007661432704766384482 0.000003946783625915248166 -0.000007654449594633551049 -0.000004894273312659643479
494.000000 -0.000003416111183500676316 0.000010879369768673952771 0.000007326826416784993705 0.000003767336918464084906 -0.000007284756339749155139 -0.000004658244451306532886
496.000000 -0.000003243792919418746419 0.000010400568672753386537 0.000007008844396026500515 0.000003604282169249701460 -0.000006936907754142605185 -0.000004437559378608718011
498.000000 -0.000003085320428835597910 0.000009870748115542012511 0.000006671210522499450033 0.000003437779256120736147 -0.000006597717727704130854 -0.000004220420717315560373
500.000000 -0.000002924954584471065040 0.000009405899440747312286 0.000006350708742934698082 0.000003266870221448807485 -0.000006277619860093479703 -0.000004016483491797351012
502.000000 -0.000002781885246303652892 0.000008908053127314611970 0.000006033873923832828530 0.000003119902026400313616 -0.000005965351372538469735 -0.000003816136257930931030
504.000000 -0.000002672660506670020784 0.000008462187257554649769 0.000005766216899895364172 0.000002997861117417270460 -0.000005670641645666238581 -0.000003628126498841505024
506.000000 -0.000002562183107684641093 0.000008089125949670604649 0.000005509167960859006125 0.000002867502042006792851 -0.000005390904432545964729 -0.000003447605425380407069
508.000000 -0.000002456430484523827134 0.000007692684647251085079 0.000005243721093437323582 0.000002721613703086922695 -0.000005130206740507547983 -0.000003280501256111488677
510.000000 -0.000002320025312945608250 0.000007310084791939650174 0.000004985338843034311528 0.000002588476307192998150 -0.000004881404652094492358 -0.000003121383715632418296
512.000000 -0.000002151514808028154949 0.000006963274856482067787 0.000004730926176393041893 0.000002451725200456490728 -0.000004655258473040132159 -0.000002978946418488675760
514.000000 -0.000002047321878034998794 0.000006683178209595577520 0.000004525383462809669741 0.000002340858472708383422 -0.000004433665101634483515 -0.000002838980357602032531
516.000000 -0.000001984457594298045831 0.000006387992788194129963 0.000004345692232781938831 0.000002258526849008205148 -0.000004208663231000864148 -0.000002693297323464428840
518.000000 -0.000001928486187039762497 0.000006015270726257147910 0.000004129237112380925270 0.000002159588235167725898 -0.000003995808614311511659 -0.000002555714636098701032
520.000000 -0.000001859178039260883378 0.000005747760044237495075 0.000003949487839221980740 0.000002063511782331726040 -0.000003805054436375885369 -0.000002433907946413224945
522.000000 -0.000001750812164901138560 0.000005487588454605640022 0.000003765387327988985784 0.000001962307056120741597 -0.000003629436658309959981 -0.000002323646000130269936
524.000000 -0.000001642041865383066462 0.000005230179708701515227 0.000003605212614722506855 0.000001880317650933167612 -0.000003461677198343947799 -0.000002218155395895661826
526.000000 -0.000001541074200659003025 0.000004989666330569667244 0.000003446130907155370740 0.000001809717365091700004 -0.000003288039168154065023 -0.000002106496276042591477
528.000000 -0.000001455589910444157731 0.000004765122088185752624 0.000003294547253114873085 0.000001743754197686647588 -0.000003130423367773750072 -0.000002006383419519859336
530.000000 -0.000001389236738136785276 0.000004547418738802865969 0.000003155330401240548619 0.000001678944256064793313 -0.000002983588839967942633 -0.000001914141733585736517
532.000000 -0.000001328570477326816679 0.000004350812161548043324 0.000003017199726107344648 0.000001605736426576473825 -0.000002846812788196769792 -0.000001827302533717600001
534.000000 -0.000001252637387163718204 0.000004163811378532029265 0.000002890422280880486331 0.000001543491768526291342 -0.000002709448856246722524 -0.000001739352604434076689
536.000000 -0.000001194481175619822461 0.000003965447596188389065 0.000002775771367718605562 0.000001487630141517693325 -0.000002582579726145561335 -0.000001658862975738560596
538.000000 -0.000001202869913433012321 0.000003741452560788204343 0.000002652795840613857888 0.000001436036084410962091 -0.000002448209985220188149 -0.000001570083509627385669
540.000000 -0.000001144796392058416125 0.000003513396041418621933 0.000002506767065169088675 0.000001362835416002878682 -0.000002335931967858841402 -0.000001498342015202794047
542.000000 -0.000001077908334140674001 0.000003301146629213119515 0.000002376631721458817435 0.000001294167926743161027 -0.000002231063755178002317 -0.000001432504351072664472
544.000000 -0.000001030026067467907028 0.000003131812831158175657 0.000002270107512186398723 0.000001235359328650249528 -0.000002124146124760108462 -0.000001363916824480765968
546.000000 -0.000000990191129372531410 0.000003021793719826934337 0.000002182189869393265574 0.000001190160597095201163 -0.000002021121842823201510 -0.000001297579981607224566
548.000000 -0.000000924337466012475363 0.000002936614138910584782 0.000002094208885351331203 0.000001131190848027378340 -0.000001927599373312713266 -0.000001238079477847637346
550.000000 -0.000000882543066906056815 0.000002847330255279563216 0.000002022614663652007269 0.000001085954208830029791 -0.000001837645263758226800 -0.000001179954915316716594
552.000000 -0.000000867964561857192339 0.000002639021175983059560 0.000001895900032158889656 0.000001027706756326108393 -0.000001748283763491191574 -0.000001121686232041416547
554.000000 -0.000000846274969192190710 0.000002492979866829253848 0.000001805551194428903717 0.000000986725616029559730 -0.000001663301129060384334 -0.000001067647807294110850
556.000000 -0.000000758292978132450170 0.000002403833104927715359 0.000001713643698064481976 0.000000924506864514176969 -0.000001593723947107248378 -0.000001024008448568146083
558.000000 -0.000000722128669394364946 0.000002262151308138928329 0.000001619090331644246335 0.000000872434519060580821 -0.000001523503753042250280 -0.000000980284105669556889
560.000000 -0.000000714553348371147892 0.000002176196334672253265 0.000001568945237045294039 0.000000846793873117205955 -0.000001453745539706622276 -0.000000936287094289763534
562.000000 -0.000000700866661641248953 0.000002088395618057196084 0.000001514567192165069854 0.000000817770456466905746 -0.000001387340160284779285 -0.000000894828344062241888
564.000000 -0.000000654838532017022902 0.000001999097689263381965 0.000001460768446481423403 0.000000788584746568473664 -0.000001323058433981488598 -0.000000853115537986383911
565.560000 -0.000000612924215013006352 0.000001899689013619697410 0.000001380243141229961652 0.000000741465247912447236 -0.000001270286466984577512 -0.000000817815096350481321
