0.000000 -0.000000000000000000000000 -0.000000000000000000000000 -0.000000000000000000000000 -0.000000000000000000000000 -0.000000000000000000000000 -0.000000000000000000000000
2.000000 0.000251958813491775666851 -0.002518942272246054402129 -0.004322234085402691314282 -0.002547287707101052699199 -0.000034091011098121088894 0.000112877792825273406160
4.000000 0.000958627428075373524442 -0.001629828199854917170075 -0.007460600068894453901214 -0.004456175435306316753858 0.000216462255077958865609 0.000375999168826424536374
6.000000 0.000870114007010972922290 -0.001566112217288961059106 -0.009898275752863413753935 -0.005682856647516098050343 0.000476304719490584012754 0.000591567172910497751474
8.000000 0.001071296961552473505155 -0.001269547546279234731537 -0.012164788737861234949045 -0.006639521920038346514126 0.000750404182915425516098 0.000803853550534582321149
10.000000 0.001861415429090502006784 -0.000319292679978199715057 -0.015090773672909292557609 -0.007901618009668723296990 0.001072085453297093836367 0.001043482136155584943590
12.000000 0.002718392506323392097956 -0.000216125453648144177574 -0.020704250295429139916425 -0.010374034669455552484796 0.001456020798706323445687 0.001352261653558658799010
14.000000 0.004148066364453988422167 0.000717425309025774313003 -0.027857344459336911418612 -0.013919856309802870406034 0.001927226110950617382622 0.001746818844038015502984
16.000000 0.005815605012184432882905 0.001985787126605765944010 -0.038219797367589410097555 -0.019254871276081515080181 0.002565904907611088643649 0.002303714478406538018057
18.000000 0.007866552399842739393132 0.003604072932568169219947 -0.051457667146019736570395 -0.026201962094779769618658 0.003470160177889937934415 0.003079889550847575169917
20.000000 0.009430194401162900891267 0.005208467159892843367786 -0.062804907211722049709124 -0.032316132940031869202890 0.004693880697560151235570 0.004105166660271440323693
22.000000 0.011066631786692527478211 0.007310563256982127375294 -0.073937305018133961387328 -0.038233659786296766980307 0.005913410198219611751957 0.005113195883990988115098
24.000000 0.012704446815077659327375 0.010173673105414183723272 -0.082903048914918897605020 -0.043155095126739609345812 0.007153574731283698744100 0.006127095547965673641433
26.000000 0.013856285631036305977526 0.013372582320642093650642 -0.090645183830915590506017 -0.047769913491727850063384 0.008895278092085351015483 0.007577754707403390986575
28.000000 0.014493317513038190408325 0.016721959211389077898380 -0.096071135965949391866125 -0.051522840388951031409537 0.010219934450611199358572 0.008718919854293717686122
30.000000 0.014794224299203552475124 0.020353017491632551666525 -0.100573569608275029119149 -0.055069365084787436082081 0.011578935280313297148669 0.009890745761480182127179
32.000000 0.015149378194349095647087 0.023810518514683121776843 -0.104613330374391605426254 -0.058489044849735161157867 0.012558009668858840027217 0.010712127445377684492600
34.000000 0.015877430222268243409367 0.027921296789146111266833 -0.108611516242033551149504 -0.062332782363999951480427 0.013570645178981651651773 0.011596173861932583884493
36.000000 0.016638972708575613251858 0.032477973860072735512450 -0.111519158148261049445793 -0.065843211895268469180387 0.014325822425315336977603 0.012191601586491320613481
38.000000 0.018441818838325931689814 0.037179520414557000462796 -0.116130260899816664665885 -0.070838490380160601400661 0.014506306711417846569412 0.012318184726823893856973
40.000000 0.020165114796091860444038 0.043321815962094542551419 -0.119083261729417036467460 -0.075390979893230111730240 0.014697945017809218096194 0.012493163921262524437839
42.000000 0.021617408666454174248628 0.048348696403651747477426 -0.122571398416442323142661 -0.079910327199621405958041 0.015225960981658962639651 0.012964112911434989838799
44.000000 0.023445540262281298199420 0.055033094027585972851657 -0.124239606073410807640656 -0.083731541603764073067317 0.015444894618369392827462 0.013168668694208650327138
46.000000 0.025122853514553782072749 0.060492018297665040016398 -0.125982681914120875354968 -0.086691953282759817711600 0.016091607237858747414538 0.013663919549491506180705
48.000000 0.025746993233685778329489 0.066136457434015333278765 -0.125997110638021131423514 -0.088426300418522021939971 0.016926104809553997598837 0.014276424375789534271242
50.000000 0.028117791783900992347300 0.072824086314172239986497 -0.127100283679902809064188 -0.090913488893025987125363 0.017358658616741996782995 0.014549909636067006116211
52.000000 0.030024788436890072901297 0.079787100236246036311094 -0.126511559992390665296824 -0.092479855364441476694992 0.018095252989500931750655 0.015068501449522646307155
54.000000 0.031219332279237337057776 0.086169781931915004347111 -0.126807993957677361818170 -0.093972739970153928990015 0.019234451483353672690546 0.015964903198003092127388
56.000000 0.032695703068514804512379 0.093995792427987737149842 -0.123496815277995886095397 -0.093048489812097151530068 0.020324249315985226660430 0.016716327281170763330298
58.000000 0.034502179144964131851658 0.099381517661201568270002 -0.122104245056300200755750 -0.092766886945819693188753 0.020878461399432758638373 0.017049698944148775070495
60.000000 0.035835693152770145553099 0.104620328609881865777886 -0.118304925978950023490732 -0.090660451320985907530670 0.020946665215710043306263 0.016915117251992694419327
62.000000 0.037571948491765448652213 0.110690761042592442087162 -0.115073172546617738531971 -0.088648751296042826997024 0.020023759582103870663383 0.015877240776133155070182
64.000000 0.037136632330753212294372 0.113277184017096271828606 -0.111679579616953225662535 -0.085838256597729728492041 0.019343294450416333163378 0.014979254409766516731306
66.000000 0.033060720347989881739981 0.108548502471879027009294 -0.109686203932455553222702 -0.081844932412808060750997 0.018903777159693803400220 0.014119701779983145906172
68.000000 0.028213398264631969758476 0.106146668091622473073521 -0.104669136897377626493899 -0.075473125651280933978704 0.019344332166049506283034 0.014046055079876409305006
70.000000 0.024786080325282386360719 0.105395411153669738002492 -0.099127783289921556075797 -0.069911500766614037560842 0.020648871563454740396537 0.014797111479296437552833
72.000000 0.023112114918855810458131 0.103677810787005192372234 -0.093364464945648872884476 -0.064222128848247198029675 0.022441844854978559159475 0.016038498986162899595520
74.000000 0.019460088132118563003514 0.098783475534612336099727 -0.087900231372476850255637 -0.058911157228726356016590 0.024455643369881100573915 0.017504785547268260359477
76.000000 0.016553503725725070977459 0.089446446597644516107728 -0.084919444794872248061246 -0.055234516715252271468195 0.025600979964388231868710 0.018271453803780160485282
78.000000 0.011783483511872212129434 0.077094083356265163953225 -0.079424379698535288452099 -0.049122219400402976352549 0.026922194167174721968205 0.019065818708422443972239
80.000000 0.006663924459299100377940 0.063083441454489283528595 -0.074991629834857867487052 -0.043358588992963471853148 0.029916765825822366764442 0.021515923712062838546455
82.000000 0.001976420379157075093990 0.051352710179642366283836 -0.068701369366078610112503 -0.036963364406847318277549 0.031901642970978541513638 0.023002438726356381343274
84.000000 -0.001170416498540409119822 0.039354508228273521464047 -0.062609306605976730586427 -0.030553520395866524267392 0.033190974442346074524401 0.023856244785302283678563
86.000000 -0.003693389811811761524324 0.029791333831715612751045 -0.052045028998788323004732 -0.021757425393754161596638 0.033990897648495166372129 0.024216382713789012109951
88.000000 -0.004782930259777017079070 0.020673341395691331723317 -0.041967052343841626527166 -0.013111379544461586321713 0.034539932405541873272625 0.024331571198794570837221
90.000000 -0.003568462156707954014562 0.015140722300114758253065 -0.032338776837983217171679 -0.005858251421210029612208 0.034333647864730344745343 0.023852485338546343396349
92.000000 -0.003141674690996358338541 0.008883199633393842192808 -0.023745576217872991359181 0.000511653838495627357429 0.033870212933986863779179 0.023181578126268889000761
94.000000 -0.002160208178783338227313 0.006440037414755002062594 -0.012555897328689792288858 0.007971004509323796963227 0.033278064424234816975900 0.022382329210572170230531
96.000000 -0.000991397741286431525079 0.005170685817983453058666 -0.002432346124756775383735 0.014643055638239900473341 0.032349775505273604958578 0.021325557633967203580161
98.000000 0.000055427490071337734976 0.006404853897636103750302 0.007226836370147334161207 0.020018773662338004010186 0.030559888470339972160739 0.019721169383525482404762
100.000000 0.001177200650541312216754 0.008740245678801293605087 0.015910372912950995066828 0.024091464573820518813019 0.027809598870261315745056 0.017498067091494932251416
102.000000 0.003019681179538046510158 0.013265796544013674224116 0.022131789104441145638047 0.026172823622018021733071 0.024581996702158458167897 0.015021703113219930791900
104.000000 0.005550176785768212196770 0.018514451562807964640767 0.026684874667802654241155 0.027012106118579470165342 0.020769764066681396103009 0.012192774782253158055711
106.000000 0.008849509432312430839973 0.024156048650274031946994 0.030418970760258994684433 0.027239929651016799028174 0.016651158187414666356219 0.009211908987703803716740
108.000000 0.010806575536535989803810 0.030222923920349482884706 0.032753639864239597612183 0.026629206722180710081860 0.012607709544109274926726 0.006351670824345014357282
110.000000 0.010637621266525044971818 0.033522008322536558933002 0.033338302671178030034405 0.025146864012232639923328 0.009194962267814580508807 0.004069484653530884739336
112.000000 0.010284611248628351340417 0.037269921043775564029055 0.033147909007701509276345 0.023675911347499790232662 0.006691549068004573955215 0.002434647766096857245816
114.000000 0.009343865058843181872761 0.040073468497043671088242 0.032663566793237328034216 0.022347917100932292167048 0.004837105810197625532787 0.001288281839604936418464
116.000000 0.006720389646638435729442 0.040898252458604608672310 0.031987029788271711949754 0.021439974131934810830380 0.003916980996580545111574 0.000791732896845993914907
118.000000 0.001229760430472908068478 0.038870388943989329921802 0.031438978645429264957567 0.020761467176015964419822 0.003258321838139101311871 0.000507569152780111619398
120.000000 -0.003112332661522043946584 0.036071678553709372871960 0.031067421099197536915604 0.020232675918722464736277 0.002777194737296579448577 0.000342456788213709839141
122.000000 -0.006715067536804984922594 0.031463922659956664040770 0.030250630974608158640926 0.019486031178143056741270 0.002321624120401152586296 0.000190675385590649402621
124.000000 -0.009492999050207959546577 0.026697968185907135912904 0.029424883212745618632500 0.018632883461062850483092 0.001823562701907297835258 0.000016423183493596411029
126.000000 -0.009716472905373033791543 0.022531625919937122576320 0.027938874887810050129389 0.017454258029450522154979 0.001357184553898432973970 -0.000165461600847100121945
128.000000 -0.008698464273025076007317 0.020203013857867817282266 0.026018579734546992687783 0.015949750321648518969209 0.000789462732384148767849 -0.000421812274049409500869
130.000000 -0.007721792236175305766677 0.017163911764658212194545 0.023735368249576723614913 0.014387951798577543888191 0.000369804874042464759576 -0.000575378388466107676055
132.000000 -0.006628059621528734242368 0.013788010913339938251498 0.021275804019969583869010 0.012730361411269160154536 -0.000044006699930587608307 -0.000724565305659848925279
134.000000 -0.005652523721020778248170 0.009102315750727623874794 0.018329097119032113083481 0.010966646928820324505272 -0.000358270170250150888063 -0.000803752955702800777477
136.000000 -0.004743317655619478344364 0.002965547580609264460838 0.014709289137891410487180 0.008883577416434864162942 -0.000631153866291951225372 -0.000831772833839036058144
138.000000 -0.003940758676081825874482 -0.000974369408068567321307 0.011776743948273748693878 0.007145538577918089141738 -0.000861830349828834364756 -0.000873533840872534592982
140.000000 -0.003086991239638035410681 -0.002131435350648797858591 0.009478305724476261337474 0.005661280915451583767295 -0.001103514332336426708239 -0.000950914453488891373359
142.000000 -0.002321786286639916825625 -0.002372298434403358885492 0.007568443029951379269482 0.004428524925947354036471 -0.001292072976657566898279 -0.001014791834486344739019
144.000000 -0.001818061792890704421108 -0.002629239407630849876402 0.006227694000931195857096 0.003599028953766794918651 -0.001420004692370386819092 -0.001062129578600258614923
146.000000 -0.001560905782776560602604 -0.002941878953466547669954 0.005324390347923335133073 0.003060632017235352664297 -0.001448276176089017142773 -0.001043426101378035599290
148.000000 -0.001560030205237396749504 -0.003010969900664341343532 0.005480927085052834588086 0.003172947785350696547901 -0.001444922306636928482221 -0.001044535342247489544815
150.000000 -0.001529756485654379296463 -0.003090653840964874190383 0.005582607015828367109933 0.003252555856956294844107 -0.001432713717029765378846 -0.001034675151485830264450
152.000000 -0.001479908346318379837661 -0.003165612273648166566375 0.005665487163301414358374 0.003325313535802723683560 -0.001404273463092552088824 -0.001009476316436988627828
154.000000 -0.001439392795076483658884 -0.003266872419408174514632 0.005709402124730353356163 0.003370076513090596980610 -0.001410268434559448216467 -0.001018299865088918105746
156.000000 -0.001427565200708028536267 -0.003398133871433269091039 0.005726667424772926423548 0.003401461656613337641158 -0.001413120259729568495982 -0.001024459524207484411445
158.000000 -0.001472007060530908847257 -0.003580426098875927679033 0.005716975440046572973229 0.003424493019017955421079 -0.001409211951702838338737 -0.001027067556320251364918
160.000000 -0.001385614756016568648728 -0.003616257725815186924168 0.005774878339408480269757 0.003472516923901156678939 -0.001430167402252781848337 -0.001051257089421437588422
162.000000 -0.001305071185133667823267 -0.003646463507404097432324 0.005826587560857176065210 0.003508379667630201394907 -0.001452667971642645832961 -0.001072285299127301782737
164.000000 -0.001256538608810137038624 -0.003696079150522245393429 0.005869225202339445161825 0.003538494980408650632253 -0.001463746747847082365149 -0.001079987921341487829355
166.000000 -0.001240252083587469475803 -0.003769587629112094474826 0.005898571209236802385945 0.003558096175864945177880 -0.001477470532233223247595 -0.001088471196831882316716
168.000000 -0.001243969102072288055935 -0.003855305120348805417163 0.005922151217417915766705 0.003571442653365756655925 -0.001495696711301712326925 -0.001099965552947959829613
170.000000 -0.001248965138641178283102 -0.003933026420234278855426 0.005956814907790737925741 0.003592012873152395768112 -0.001512991958309322943627 -0.001111232860330355325801
172.000000 -0.001255570611516499020255 -0.004004542298661040167218 0.006001538426985359234167 0.003619037294676886052508 -0.001529812788849706011937 -0.001122573975864988617135
174.000000 -0.001263873878052727524682 -0.004071312091266156632519 0.006055424752243089223103 0.003651849863549371747601 -0.001546436439176626697137 -0.001134119578294581981784
176.000000 -0.001273901054469987140921 -0.004134631552885735181202 0.006117664573609410058608 0.003689868196849637946300 -0.001563081269179446113060 -0.001145962697418402044536
178.000000 -0.001285643356290162462804 -0.004195621380607885558822 0.006187556460138609812360 0.003732596889197496367596 -0.001579926978759902062369 -0.001158177668486665362960
180.000000 -0.001299079998958621411098 -0.004255248086434771336017 0.006264537660211260371168 0.003779646662814890867299 -0.001597120891970255302308 -0.001170825918577822000524
182.000000 -0.001314173181976641515203 -0.004314321679286243008122 0.006348182267695024090515 0.003830725315523235245674 -0.001614785587331464804944 -0.001183960777425428247123
184.000000 -0.001330877875614196442083 -0.004373519758232934963316 0.006438194902999880113448 0.003885631355575785029349 -0.001633024443948456402853 -0.001197629925980739536151
186.000000 -0.001349156597294205858426 -0.004433414651028307756908 0.006534399544525832173592 0.003944245688231430048420 -0.001651925240089516461542 -0.001211877041027423305281
188.000000 -0.001368977378979485117969 -0.004494487048158615251359 0.006636726533223842594555 0.004006517883204416090315 -0.001671566073634412567112 -0.001226744138198050757677
190.000000 -0.001390314157443773212738 -0.004557143944202191737647 0.006745195057283020177719 0.004072455779343068377196 -0.001692018602844124006840 -0.001242273273355159590031
192.000000 -0.001413158263758940115171 -0.004621741773941046189933 0.006859907317345035823730 0.004142120469179707241414 -0.001713348088461108401429 -0.001258505143702116219062
194.000000 -0.001437513821011844519088 -0.004688596653576419283349 0.006981033798629064125729 0.004215614016764002852655 -0.001735620389363460094878 -0.001275483675611386279181
196.000000 -0.001463399265063815724713 -0.004758002097976828798087 0.007108805466120344737635 0.004293077418287401421371 -0.001758900054156832320693 -0.001293253819286487677973
198.000000 -0.001490846779763115503500 -0.004830223507290010154236 0.007243514118220026158645 0.004374686335137179318822 -0.001783252880037656390444 -0.001311863031738698176162
200.000000 -0.001519905575861439043367 -0.004905526684233512194067 0.007385499795299103713286 0.004460647208963540791271 -0.001808746551651799292643 -0.001331361261321497299961
202.000000 -0.001550632215792451754771 -0.004984166002295800645960 0.007535150298271799627903 0.004551193167066663707032 -0.001835453283392824959733 -0.001351802867105608707554
204.000000 -0.001583103026490932912357 -0.005066399102907374538129 0.007692904173375947687874 0.004646587748061931609500 -0.001863447946392974684943 -0.001373244643703380122451
206.000000 -0.001617404368379240977432 -0.005152491859374488600287 0.007859248172962083126003 0.004747123647595489180639 -0.001892810193570172673169 -0.001395747880414119129408
208.000000 -0.001653635293350758702496 -0.005242715901508205114667 0.008034711396860148846510 0.004853118434575188350211 -0.001923624644417620474512 -0.001419377702560884347421
210.000000 -0.001691906126137975681020 -0.005337355111301822149783 0.008219874927929572000496 0.004964919020593931003882 -0.001955983630673743811634 -0.001444205549262424876852
212.000000 -0.001732343803482874321914 -0.005436710992594855247628 0.008415369440846717438709 0.005082903158079074730502 -0.001989983909209178721683 -0.001470306475957726573267
214.000000 -0.001775084958139909767014 -0.005541106104542978076644 0.008621874834341278215355 0.005207478467098267810309 -0.002025728887507053169181 -0.001497760761133855702057
216.000000 -0.001820280096688838868124 -0.005650877197232776448510 0.008840127128277315560201 0.005339084858385711486461 -0.002063331388239046659816 -0.001526656039547460942327
218.000000 -0.001868091291816101557136 -0.005766384883907973123163 0.009070918449893057566857 0.005478196323752694205100 -0.002102910833709478993087 -0.001557085230155106497785
220.000000 -0.001918700703754302842874 -0.005888023773893533499568 0.009315096341975862698215 0.005625321248082112111921 -0.002144594737405746374959 -0.001589147253101646584464
222.000000 -0.001972301506420361463801 -0.006016209637077796559823 0.009573573924614732152949 0.005781006878246792990428 -0.002188521284523959210128 -0.001622949490018899204938
224.000000 -0.002029101290377153914146 -0.006151393091467944988782 0.009847327153714592606892 0.005945840406818221450524 -0.002234836604945864262789 -0.001658605503776953158171
226.000000 -0.002089325675210646025143 -0.006294055782664333305310 0.010137395245407659905013 0.006120447207779361638302 -0.002283698940451892381298 -0.001696237969440171113045
228.000000 -0.002153216042162667785698 -0.006444717537506760435262 0.010444885969588365431937 0.006305495730197274543982 -0.002335276028095096840370 -0.001735976771289465207110
230.000000 -0.002221032577789719669042 -0.006603938381993965274497 0.010770973000273135339322 0.006501696650250242924540 -0.002389746905449378119174 -0.001777960467607544569474
232.000000 -0.002293051722396685816741 -0.006772315932901260687737 0.011116901062317526352463 0.006709805142707107525335 -0.002447302851688166764471 -0.001822336778182817368030
234.000000 -0.002369571563625851289697 -0.006950499940470848507512 0.011483981866238092417465 0.006930619892980901738944 -0.002508147024667287811051 -0.001869262320219374677935
236.000000 -0.002450909725730644663638 -0.007139179726610019385835 0.011873604636560890213115 0.007164987469164649236397 -0.002572496910733255374298 -0.001918904333793304550770
238.000000 -0.002537407056927649430522 -0.007339100280575974223629 0.012287236999707174672780 0.007413804588178095171525 -0.002640581851055646446513 -0.001971438956410960247762
240.000000 -0.002629433979928817808475 -0.007551057438415114883568 0.012726440245968067416227 0.007678023032177449039293 -0.002712647808771880518497 -0.002027054462768925098548
242.000000 -0.002727387544505257676447 -0.007775901859378787743526 0.013192882895891735323124 0.007958656081812552976484 -0.002788957630938801966758 -0.002085951824532828683539
244.000000 -0.002831706359195695129477 -0.008014543568667388193094 0.013688378886498615144562 0.008256797468920166332973 -0.002869793495456499001633 -0.002148346430589535144273
246.000000 -0.002942875819658253341154 -0.008267963708115005569410 0.014214925855671814436398 0.008573637748987715870297 -0.002955461453138884427017 -0.002214471672062531034525
248.000000 -0.003061436249433089912958 -0.008537202454472760451698 0.014774771095963657938088 0.008910496495701641581078 -0.003046295743091986026746 -0.002284582612213210527780
250.000000 -0.003188002370388172065918 -0.008823386793706434680362 0.015370490975138468778272 0.009268861537199423600297 -0.003142666457468596546976 -0.002358962166693355771291
252.000000 -0.003323273239725432932901 -0.009127729348281460319825 0.016005082803172556576987 0.009650435569691556692007 -0.003244986338800136000532 -0.002437926625253360787132
254.000000 -0.003468050149338391344861 -0.009451549986132687722340 0.016682064046874375828899 0.010057190319944096096316 -0.003353721632610802763641 -0.002521834653793274434730
256.000000 -0.003623246736327925387328 -0.009796293051009890076597 0.017405561186338951162877 0.010491416470546046507684 -0.003469400075803380154027 -0.002611093703409473991417
258.000000 -0.003789895544565388598585 -0.010163562039831118555266 0.018180365702380272413530 0.010955763768883903033768 -0.003592621177014003984451 -0.002706168272400056185739
260.000000 -0.003969148938661349636237 -0.010555143289162986428020 0.019011942718517270412004 0.011453261724634615503771 -0.003724060868252619498076 -0.002807583530579854137754
262.000000 -0.004162258071690121130626 -0.010973048054178327626040 0.019906344361796356190464 0.011987297091424592779263 -0.003864473913674611443153 -0.002915926485099345349949
264.000000 -0.004370551009810530289357 -0.011419550042006867268674 0.020870022223297406832598 0.012561547705105724839769 -0.004014686822336973638647 -0.003031839612663771426487
266.000000 -0.004595386895787575108618 -0.011897233044813427388364 0.021909505316626429194393 0.013179848160789705419083 -0.004175583088564486546057 -0.003156007270784549467030
268.000000 -0.004838110207677853713548 -0.012409012654906475051075 0.023030973340716191094524 0.013845999990420918349110 -0.004348077405048844830404 -0.003289133243817390396535
270.000000 -0.005099994270051120409670 -0.012958152071987414852283 0.024239752627974158610824 0.014563533454170992514909 -0.004533081719508536520935 -0.003431911291162273707628
272.000000 -0.005382203171834014365782 -0.013548253319146445067256 0.025539831065507771767908 0.015335464633908651305161 -0.004731466793214123868483 -0.003584992302786461221276
274.000000 -0.005685772921448976544023 -0.014183205167235347909926 0.026933519337482985517296 0.016164106222944570057098 -0.004944022203654752957436 -0.003748951004870412599679
276.000000 -0.006011627611716121623309 -0.014867089571633032574205 0.028421399172764302831773 0.017050998238169631088246 -0.005171426605869069992316 -0.003924262222132096113170
278.000000 -0.006360645703153195232304 -0.015604076725641314107862 0.030002644891394654458328 0.017997014342839897510506 -0.005414238007923876001837 -0.004111295119754048744964
280.000000 -0.006733768549542674605735 -0.016398306072341960193395 0.031675729476552838548287 0.019002638843402797769189 -0.005672913285668516533700 -0.004310331381048990682936
282.000000 -0.007132157154143707426808 -0.017253823045394224566795 0.033439435519618219971871 0.020068389820572150872291 -0.005947861326257602131162 -0.004521611254027477037887
284.000000 -0.007557377992832447002880 -0.018174551951225730722639 0.035294084079069018566877 0.021195336634480779064438 -0.006239536916172829829341 -0.004745411363211650586369
286.000000 -0.008011599655685479326461 -0.019164331352853662682190 0.037242877207108539272529 0.022385668884817914309204 -0.006548565801369542020705 -0.004982146658190703125690
288.000000 -0.008497781068677982829751 -0.020226974085174084794225 0.039293324197876920711447 0.023643314530598071032674 -0.006875892214727951333442 -0.005232489599683392243745
290.000000 -0.009019789212169445485889 -0.021366303396610962506141 0.041458730799692242174892 0.024974634403070794519408 -0.007222925866217543705572 -0.005497489260673738172003
292.000000 -0.009582344836102613810924 -0.022586097743870589549253 0.043759668500859279227644 0.026389236895537480920293 -0.007591639163211575183632 -0.005778654045266231990829
294.000000 -0.010190514267003019863167 -0.023889845561145921226665 0.046224861311774126382268 0.027900806176893541699080 -0.007984524893681231236253 -0.006077930242675519054152
296.000000 -0.010848410822748058221499 -0.025280543255154799137108 0.048889716714611196335394 0.029527297069503646853583 -0.008404292856122439273059 -0.006397478363159700941176
298.000000 -0.011557180910283014127482 -0.026761898148648075729250 0.051788079191400965273218 0.031288350996734548559175 -0.008853303328064382818341 -0.006739214707394540829211
300.000000 -0.012313354312071988355681 -0.028342959931161027659074 0.054931187531839155424596 0.033196243092685616404847 -0.009332916010127870892754 -0.007104186299854976967272
302.000000 -0.013108169145175260078551 -0.030043637904708923869190 0.058274313431824209530419 0.035238939947406865138557 -0.009842742515584658111183 -0.007491741929221186653554
304.000000 -0.013926768398929107589668 -0.031891616191750904452107 0.061688916665915013992638 0.037362803826214055491484 -0.010379453472169635278033 -0.007898399173266613254585
306.000000 -0.014747305081832204690095 -0.033905220361263407879981 0.064974288396809659618114 0.039473217589591443055230 -0.010935519997373951972541 -0.008317047792364916022900
308.000000 -0.015543640705683491737288 -0.036074775259067153043713 0.067923401549384795905517 0.041465040255688860593164 -0.011499120897030421992180 -0.008737499208498393163391
310.000000 -0.016293188761821789795059 -0.038363031252437264362332 0.070396754992560497954379 0.043262091695751792030933 -0.012055893034760487708690 -0.009148306914256719088452
312.000000 -0.016983855299422635082296 -0.040724159149325998841018 0.072344022107611372085501 0.044831532146503823288430 -0.012592031972179652810073 -0.009538992497687560911945
314.000000 -0.017613703247812546176521 -0.043120185069521060894360 0.073775924339699788800928 0.046170177512204174652410 -0.013097259347015825781124 -0.009901888976606747910791
316.000000 -0.018184842983346126421562 -0.045522468445746568088683 0.074726699365759097215545 0.047283321567477075431096 -0.013566253717417955243496 -0.010233031718648883529044
318.000000 -0.018696953998247865108562 -0.047903816803979641647526 0.075230561026627035259295 0.048170015653204147076938 -0.013998607188185969996130 -0.010532153700649983171789
320.000000 -0.019143322024478087034494 -0.050230984345593705786559 0.075313447547018103067629 0.048817521789648418706342 -0.014397988741181640820477 -0.010802064067679624168039
322.000000 -0.019510622173695431336160 -0.052462932109378607181682 0.074994091616400443411905 0.049203633128912578620362 -0.014770501602535785271031 -0.011047263165801398526744
324.000000 -0.019783103487865077996233 -0.054555633414119744650783 0.074288677482939435847697 0.049304003299443122099177 -0.015122442410087732697632 -0.011272098200048553603980
326.000000 -0.019948988007487296336695 -0.056469381779576395541387 0.073214772182707582581784 0.049099866471174265225574 -0.015458273527116817014360 -0.011479277198506467744243
328.000000 -0.020003654810249169027081 -0.058172183322590255427631 0.071791863031798505700998 0.048581050117026541856902 -0.015779553996455478875882 -0.011669255968816041185709
330.000000 -0.019945054571774947088647 -0.059635255925419183853364 0.070038868467347317747773 0.047742576448462165084052 -0.016085252555754079445416 -0.011840625473106446835514
332.000000 -0.019765081050971425313811 -0.060824878986626675081428 0.067971687741787703562757 0.046579332978193388470345 -0.016372778439726658888942 -0.011990900349295978075115
334.000000 -0.019446593237925236669073 -0.061698738780691562977321 0.065604323199860634097114 0.045085800706885295618953 -0.016637960862269166040228 -0.012116377448293963806081
336.000000 -0.018969469513829995133136 -0.062209447828848227213250 0.062953768970878024036075 0.043261851164729074603610 -0.016874193077143634367232 -0.012211393055720436151557
338.000000 -0.018319941263869630315719 -0.062315216673506444722275 0.060042816356067896244042 0.041118186712854283559881 -0.017073751448784479922693 -0.012269611169030011921244
340.000000 -0.017495045981338001178651 -0.061992755260031451314262 0.056898585515168360882132 0.038677797185052591177890 -0.017232980862008660805085 -0.012288797748195511364000
342.000000 -0.016501263746582402192065 -0.061241829736055582167342 0.053550540214927180859839 0.035974819527765024285149 -0.017358142863621896234694 -0.012276179800178636802865
344.000000 -0.015354523473384021348132 -0.060078799088027101671372 0.050030541246884267791994 0.033053141943856806372892 -0.017465580507128430909347 -0.012248750684243631461912
346.000000 -0.014085743312405753571714 -0.058528536860620233861496 0.046373603247790523562699 0.029965994362104078629905 -0.017572452470726675211043 -0.012225134927936837092588
348.000000 -0.012743363759528494524864 -0.056617928777398324191594 0.042618498240597733894841 0.026774001550976801039328 -0.017683632257092515155383 -0.012213557371519625713296
350.000000 -0.011382924854807973530368 -0.054371761455851375099968 0.038805276287687991143560 0.023537415189756171612911 -0.017786504532183975563209 -0.012206259315402171947151
352.000000 -0.010051557724763239901056 -0.051821438806403462284944 0.034966160069704058099838 0.020304445003648311646183 -0.017858258950781406848574 -0.012185261829669280508881
354.000000 -0.008782086517820135440626 -0.049022627877370598958873 0.031116246575992628775609 0.017104589975038591437295 -0.017877187995773397011234 -0.012132455361033184573771
356.000000 -0.007595886165948018825533 -0.046059980581034012936392 0.027254830119206967936618 0.013952265227615272269457 -0.017828191389896382718083 -0.012034940813348465882271
358.000000 -0.006507682158220123511128 -0.043034081533503867889046 0.023376302523360700108546 0.010856369134578335716723 -0.017701574829950817574487 -0.011884286230930449224097
360.000000 -0.005529760161037576386700 -0.040044312147600583107199 0.019483331465806410370822 0.007830153685887280418099 -0.017489580908912852330594 -0.011673582674092646341291
362.000000 -0.004672834211252144091808 -0.037177169493620258744482 0.015597639390887131638497 0.004898767547661497800959 -0.017185042475941374184867 -0.011396491589401071264920
364.000000 -0.003942925631392579614853 -0.034502244448963055589719 0.011763277073955200405231 0.002101089210564502894607 -0.016782897754134350198907 -0.011048999422624701180484
366.000000 -0.003339351276913206292146 -0.032076709297264402453997 0.008037218566198800137612 -0.000517070563631474833764 -0.016280833452957971241304 -0.010630242196113862812590
368.000000 -0.002856156405916833885411 -0.029949487691623512264361 0.004475321203888305530982 -0.002912781887467148951576 -0.015677066746548402875749 -0.010140548599342706637128
370.000000 -0.002485657237908620378897 -0.028156025435546870594461 0.001129989980228425635808 -0.005047675098755411565721 -0.014967256872266318165621 -0.009578821203136515805010
372.000000 -0.002223126557952568877613 -0.026709996185202339313847 -0.001941425673508036329334 -0.006882191418771975606472 -0.014143127153368524606680 -0.008941543935459613998140
374.000000 -0.002066591647283424777043 -0.025599955837413410075776 -0.004674543513637695497931 -0.008375398397603510056153 -0.013195959475309777808594 -0.008225431638696224442842
376.000000 -0.002007067295693431511344 -0.024789314039138095335790 -0.007011051373774937998939 -0.009497485124668195860531 -0.012125878375765657829488 -0.007433861370267589967209
378.000000 -0.002019555271320068543656 -0.024219579820653938662112 -0.008916563322050667997343 -0.010244618682556471886413 -0.010950064871276588007731 -0.006582006926970407172106
380.000000 -0.002065443042204814436125 -0.023818799549460870773609 -0.010386985576202883638230 -0.010641198858856473069556 -0.009702171445603811547609 -0.005695732735341157114417
382.000000 -0.002101080675618469551652 -0.023510129866655838509759 -0.011441502905570461595675 -0.010729943132555201656952 -0.008424868694462796583911 -0.004806131648703429459779
384.000000 -0.002084425313586214714018 -0.023216404332752314798594 -0.012111905450008023099606 -0.010560317465225659699923 -0.007162027001533247116960 -0.003944164301667852159938
386.000000 -0.001980294280974851956617 -0.022863786429941860417481 -0.012436424599012367228634 -0.010182478764975078089350 -0.005954415803476891151658 -0.003137735261041784112085
388.000000 -0.001765742853533706652885 -0.022386561496853293884435 -0.012458263663151177003119 -0.009646478323067217072739 -0.004838688640824344820712 -0.002410821567886525622348
390.000000 -0.001433832126944741512664 -0.021732553582069564362955 -0.012226248647964623253448 -0.009002840201586899751551 -0.003846023577548901128259 -0.001782354092765720985844
392.000000 -0.000995405757478992278542 -0.020867658310598054954843 -0.011792568425526232106515 -0.008299115188278288063328 -0.002997292843386564504399 -0.001263181368648319492440
394.000000 -0.000480981599174998470693 -0.019779367536138452166039 -0.011206335735438372955275 -0.007572712173453019848801 -0.002297452118624390433183 -0.000853002292296943867567
396.000000 0.000060363614547061579692 -0.018478946182113577256789 -0.010507658451074118610702 -0.006846737507434779400339 -0.001735639778284133079300 -0.000541121425037539871029
398.000000 0.000569995226686244868888 -0.016999554632553950245244 -0.009725948427064355986116 -0.006132247252632189865595 -0.001291859753749697008879 -0.000311224701895051873192
400.000000 0.000994419377093038727930 -0.015388681091064589437356 -0.008881904363704487895270 -0.005433621789366209139938 -0.000944512343545058610968 -0.000146455811972324507131
402.000000 0.001298880312357248443048 -0.013696204770637409806056 -0.007990474351966134203273 -0.004752777647448799130947 -0.000674508257861942397624 -0.000032174624031446370114
404.000000 0.001473720441736784498785 -0.011962339129033517162726 -0.007063767522327534832682 -0.004091436308249883462007 -0.000466271026205346359600 0.000043366801638673530743
406.000000 0.001530705837400951358634 -0.010214228254301824933004 -0.006113518647847641929172 -0.003452178787386103123863 -0.000307363645236522907596 0.000089360253599849560164
408.000000 0.001493379199278733028902 -0.008475982264517361100542 -0.005154003010699521013238 -0.002839244788795015298627 -0.000187806651196707746895 0.000113088648007007372821
410.000000 0.001387840656714730116009 -0.006787818437431333493115 -0.004206174392801708718237 -0.002259900437901446890870 -0.000099416077658664504281 0.000120630631393001469466
412.000000 0.001237668654130355495521 -0.005218172271148032066723 -0.003300298308740757472629 -0.001725305753588836409421 -0.000035352777078446562340 0.000117336597132784831144
414.000000 0.001063400136976162986546 -0.003848651622018995580726 -0.002473091060625608444273 -0.001249498913482983628032 0.000009925036927302982484 0.000107774861915686855237
416.000000 0.000883639407977474151956 -0.002736224135495538174745 -0.001758345809748925380953 -0.000845863257170506653397 0.000040365834164525225326 0.000095199310574876520397
418.000000 0.000714455039200996306487 -0.001888096696212974772919 -0.001177349118005604697301 -0.000523003849252935519576 0.000058458625592939649374 0.000081360602600246727180
420.000000 0.000566922429765408675967 -0.001271019673860267467508 -0.000734136834391376337863 -0.000281651825706511686580 0.000066069310095571894817 0.000067031848955281171545
422.000000 0.000445245130605671063893 -0.000836423342462486304680 -0.000416326037493301931783 -0.000113938233783145273547 0.000065311181435318021483 0.000052740072933388949122
424.000000 0.000347771532274155931869 -0.000538669458103638765407 -0.000200950929289873275480 -0.000005933000874537706874 0.000058699964205843905760 0.000039095231933279464326
426.000000 0.000270254302127020116283 -0.000341026578237992776879 -0.000062687733524286549979 0.000057651876785240501648 0.000048660053297757969635 0.000026681443600007957679
428.000000 0.000208440033100203327013 -0.000215259956568029518949 0.000020432181449851668500 0.000090051046282198284206 0.000037128393228117589908 0.000015920873897370426114
430.000000 0.000159023306389137638033 -0.000139567670434618060086 0.000065468034320786762967 0.000101439195736355552285 0.000025424469012870074875 0.000006998808801028609246
432.000000 0.000119502212420098026806 -0.000097366359766228692128 0.000085063058930832444854 0.000099335730519871967320 0.000014423930107892759311 -0.000000064326752815390858
434.000000 0.000087797249328924002461 -0.000076561122072089403466 0.000088587309324576326360 0.000089384830732565782635 0.000004722375696555050337 -0.000005362334367781471896
436.000000 0.000062249884851163796141 -0.000068663226528222330732 0.000082907028956083283306 0.000075832187385620287230 -0.000003297725054223816421 -0.000009090438849609925586
438.000000 0.000041832083319560522190 -0.000067649298717468894478 0.000073083750805237051467 0.000061821503839030016452 -0.000009465452497543532781 -0.000011516046665091100640
440.000000 0.000026115184173392116474 -0.000069297441816029464907 0.000062521688375151510944 0.000049309288975997582233 -0.000013882178794941678492 -0.000012967930708768395228
442.000000 0.000014577869508650100053 -0.000071190562577950575076 0.000052991466552510127855 0.000039099372260306632012 -0.000016813656062157565619 -0.000013728711118509878515
444.000000 0.000006494658939388589989 -0.000072318246186143730837 0.000045090660895816009768 0.000031178534778163238806 -0.000018600339079336204756 -0.000014019907671747322553
446.000000 0.000000992424760008578800 -0.000072471152949932969795 0.000038761638008360122659 0.000025187324674598649595 -0.000019547258015983538955 -0.000013995188038056290716
448.000000 -0.000002656899039114265098 -0.000071760365559437867778 0.000033782613765236635362 0.000020703075009595849895 -0.000019900658208211729350 -0.000013764106955677425602
450.000000 -0.000005009075099720246959 -0.000070362498682759110308 0.000029870326406522745095 0.000017366552312882335273 -0.000019832121014750970546 -0.000013393557620526173454
452.000000 -0.000006446292489420910766 -0.000068473458541973400470 0.000026822049588802372190 0.000014910511161674095868 -0.000019478228486311585638 -0.000012940464341139763986
454.000000 -0.000007253953363249372262 -0.000066262091819346651250 0.000024379790344863686930 0.000013070914930072109002 -0.000018941748233403692727 -0.000012442304305008326462
456.000000 -0.000007632804646447752755 -0.000063841350670207987249 0.000022423367753807273774 0.000011700485927760623220 -0.000018291851797419950143 -0.000011922582341765650227
458.000000 -0.000007731062793017353592 -0.000061328629220277464085 0.000020781025574931918758 0.000010625438812353779110 -0.000017583451382370582323 -0.000011400647431637509562
460.000000 -0.000007636004435769064755 -0.000058740402690686199468 0.000019375044794250452041 0.000009757382171144878818 -0.000016839943630779430816 -0.000010878014300248585182
462.000000 -0.000007471314438395644017 -0.000056277927099175786938 0.000018146272092661710817 0.000009044880768355867458 -0.000016087570833547745188 -0.000010363327079326510900
464.000000 -0.000007235964758707556378 -0.000053819527691505090041 0.000017059292972257081067 0.000008442088082399811194 -0.000015348104158691813000 -0.000009867892111660217153
466.000000 -0.000006968466030918765713 -0.000051413285619846456093 0.000016084597234971208870 0.000007920369944944109526 -0.000014618774798556044060 -0.000009384439183718328657
468.000000 -0.000006665157655584210871 -0.000049116301551084031991 0.000015164499086826614053 0.000007439788592769512093 -0.000013913630010553765034 -0.000008921253017728931740
470.000000 -0.000006375764689631210785 -0.000046901880900895939351 0.000014335499064417288453 0.000007022861754815909666 -0.000013233224165533339465 -0.000008476832810487015251
472.000000 -0.000006046556366668318479 -0.000044725389856778264923 0.000013570852697224917519 0.000006640618750736654430 -0.000012591587458489230026 -0.000008062738249394308290
474.000000 -0.000005736768596370052469 -0.000042655921957091675299 0.000012832610760567141742 0.000006266151599846180522 -0.000011978521812974204453 -0.000007666370208396789532
476.000000 -0.000005439093869065595754 -0.000040701460534694840665 0.000012148200768348068956 0.000005930464883119933088 -0.000011390553920092322750 -0.000007286095316738145119
478.000000 -0.000005164089098505489230 -0.000038799489624571612304 0.000011518359756380446368 0.000005617598860422018818 -0.000010828982155944413528 -0.000006922830202844377602
480.000000 -0.000004875035479281078958 -0.000036969536150837693463 0.000010918826614301387610 0.000005324037393327117970 -0.000010310650557515269119 -0.000006591633474432776880
482.000000 -0.000004619110125479488991 -0.000035234493731805536555 0.000010367058239547849099 0.000005056837169061455692 -0.000009813872422899485762 -0.000006274441460836167695
484.000000 -0.000004360386768315330957 -0.000033518606792653375442 0.000009854923121960332700 0.000004799967655144980572 -0.000009339195499330074513 -0.000005970000365793216672
486.000000 -0.000004159308437826942319 -0.000031909697085996973807 0.000009362199693610042832 0.000004568893286975851406 -0.000008891001175567542363 -0.000005684501020783818297
488.000000 -0.000003947686483080339919 -0.000030389621185620038752 0.000008896536746873539536 0.000004345335343127987227 -0.000008460697320803141146 -0.000005410183603868860368
490.000000 -0.000003748841851646184801 -0.000028855792628147663965 0.000008477978914931105556 0.000004141085882323325469 -0.000008051417522949298980 -0.000005149135302114126586
492.000000 -0.000003560773547692882411 -0.000027401245374494828991 0.000008086068962924101330 0.000003946783625915248166 -0.000007654449594633551049 -0.000004894273312659643479
494.000000 -0.000003416111183500676316 -0.000026058031285772512777 0.000007728370020806441088 0.000003767336918464084906 -0.000007284756339749155139 -0.000004658244451306532886
496.000000 -0.000003243792919418746419 -0.000024751574588755590703 0.000007387624864193688260 0.000003604282169249701460 -0.000006936907754142605185 -0.000004437559378608718011
498.000000 -0.000003085320428835597910 -0.000023565688590088807028 0.000007035278556866201236 0.000003437779256120736147 -0.000006597717727704130854 -0.000004220420717315560373
500.000000 -0.000002924954584471065040 -0.000022416186000434733548 0.000006689540099757751387 0.000003266870221448807485 -0.000006277619860093479703 -0.000004016483491797351012
502.000000 -0.000002781885246303652892 -0.000021375221925027821371 0.000006367623524499724052 0.000003119902026400313616 -0.000005965351372538469735 -0.000003816136257930931030
504.000000 -0.000002672660506670020784 -0.000020360982901787123237 0.000006096544734937972790 0.000002997861117417270460 -0.000005670641645666238581 -0.000003628126498841505024
506.000000 -0.000002562183107684641093 -0.000019342247761134778191 0.000005824650685777067230 0.000002867502042006792851 -0.000005390904432545964729 -0.000003447605425380407069
508.000000 -0.000002456430484523827134 -0.000018438959496510447901 0.000005538698819246696720 0.000002721613703086922695 -0.000005130206740507547983 -0.000003280501256111488677
510.000000 -0.000002320025312945608250 -0.000017549380386232296095 0.000005265558591018994145 0.000002588476307192998150 -0.000004881404652094492358 -0.000003121383715632418296
512.000000 -0.000002151514808028154949 -0.000016683829801432088698 0.000004993513769918483563 0.000002451725200456490728 -0.000004655258473040132159 -0.000002978946418488675760
514.000000 -0.000002047321878034998794 -0.000015837452589074163084 0.000004767022731013429529 0.000002340858472708383422 -0.000004433665101634483515 -0.000002838980357602032531
516.000000 -0.000001984457594298045831 -0.000015060014540108380016 0.000004579675993656604708 0.000002258526849008205148 -0.000004208663231000864148 -0.000002693297323464428840
518.000000 -0.000001928486187039762497 -0.000014421185617449251782 0.000004364727173339171584 0.000002159588235167725898 -0.000003995808614311511659 -0.000002555714636098701032
520.000000 -0.000001859178039260883378 -0.000013727324967443167098 0.000004172461407068494204 0.000002063511782331726040 -0.000003805054436375885369 -0.000002433907946413224945
522.000000 -0.000001750812164901138560 -0.000013029277863638885379 0.000003973427991532094600 0.000001962307056120741597 -0.000003629436658309959981 -0.000002323646000130269936
524.000000 -0.000001642041865383066462 -0.000012403306813817373608 0.000003803170579685862447 0.000001880317650933167612 -0.000003461677198343947799 -0.000002218155395895661826
526.000000 -0.000001541074200659003025 -0.000011793618650290958928 0.000003638749014715124631 0.000001809717365091700004 -0.000003288039168154065023 -0.000002106496276042591477
528.000000 -0.000001455589910444157731 -0.000011202976321876240452 0.000003481613050285834609 0.000001743754197686647588 -0.000003130423367773750072 -0.000002006383419519859336
530.000000 -0.000001389236738136785276 -0.000010667958033729802624 0.000003337392274836756048 0.000001678944256064793313 -0.000002983588839967942633 -0.000001914141733585736517
532.000000 -0.000001328570477326816679 -0.000010139863942065727176 0.000003192225148647318533 0.000001605736426576473825 -0.000002846812788196769792 -0.000001827302533717600001
534.000000 -0.000001252637387163718204 -0.000009625012169523540641 0.000003058962962646358098 0.000001543491768526291342 -0.000002709448856246722524 -0.000001739352604434076689
536.000000 -0.000001194481175619822461 -0.000009186037675741120996 0.000002939461328837470671 0.000001487630141517693325 -0.000002582579726145561335 -0.000001658862975738560596
538.000000 -0.000001202869913433012321 -0.000008815639022708318833 0.000002818725043973908431 0.000001436036084410962091 -0.000002448209985220188149 -0.000001570083509627385669
540.000000 -0.000001144796392058416125 -0.000008452628103920552184 0.000002671061472855945570 0.000001362835416002878682 -0.000002335931967858841402 -0.000001498342015202794047
542.000000 -0.000001077908334140674001 -0.000008078496875108423205 0.000002539566557496271019 0.000001294167926743161027 -0.000002231063755178002317 -0.000001432504351072664472
544.000000 -0.000001030026067467907028 -0.000007712215519977329173 0.000002427757342872079628 0.000001235359328650249528 -0.000002124146124760108462 -0.000001363916824480765968
546.000000 -0.000000990191129372531410 -0.000007304064521043043277 0.000002331991084872505055 0.000001190160597095201163 -0.000002021121842823201510 -0.000001297579981607224566
548.000000 -0.000000924337466012475363 -0.000006887205596319300366 0.000002225051371558932034 0.000001131190848027378340 -0.000001927599373312713266 -0.000001238079477847637346
550.000000 -0.000000882543066906056815 -0.000006541532680745553245 0.000002139688358563015961 0.000001085954208830029791 -0.000001837645263758226800 -0.000001179954915316716594
552.000000 -0.000000867964561857192339 -0.000006312941269050525342 0.000002016817196924293810 0.000001027706756326108393 -0.000001748283763491191574 -0.000001121686232041416547
554.000000 -0.000000846274969192190710 -0.000006064607256735890776 0.000001926853170459474594 0.000000986725616029559730 -0.000001663301129060384334 -0.000001067647807294110850
556.000000 -0.000000758292978132450170 -0.000005719723659493473784 0.000001819805811176723829 0.000000924506864514176969 -0.000001593723947107248378 -0.000001024008448568146083
558.000000 -0.000000722128669394364946 -0.000005481894800952174898 0.000001720490327875730891 0.000000872434519060580821 -0.000001523503753042250280 -0.000000980284105669556889
560.000000 -0.000000714553348371147892 -0.000005203151047198755845 0.000001666205430307652565 0.000000846793873117205955 -0.000001453745539706622276 -0.000000936287094289763534
562.000000 -0.000000700866661641248953 -0.000004961972261580783550 0.000001606316474738091614 0.000000817770456466905746 -0.000001387340160284779285 -0.000000894828344062241888
564.000000 -0.000000654838532017022902 -0.000004742387519166385908 0.000001547226387824861107 0.000000788584746568473664 -0.000001323058433981488598 -0.000000853115537986383911
565.560000 -0.000000612924215013006352 -0.000004599785290551613469 0.000001460722408522080212 0.000000741465247912447236 -0.000001270286466984577512 -0.000000817815096350481321
