0.000000 -0.000000000000000000000000 -0.000000000000000000000000 -0.000000000000000000000000 -0.000000000000000000000000 -0.000000000000000000000000 -0.000000000000000000000000
2.000000 0.000307363846644546630064 -0.000242967225171727366911 0.000180510860465706463604 -0.003072828247982893872664 0.000363424430588532598220 0.000314978019574202114383
4.000000 0.000503006266851223370930 -0.000105571120228803363040 0.001391682724252495204770 -0.001095045578744210110558 0.000405099561387707010531 0.000566457147122079738080
6.000000 0.000124025620321979918904 -0.000693466986766401991861 0.001909505864783230411758 0.000671890026144148660471 0.000325306897545748314408 0.000710292829973335889879
8.000000 -0.000468649476029033213494 -0.001332808621241731231177 0.002752243849766610080121 0.002672947835216547569220 0.000483702125215341267525 0.000922615987900853680090
10.000000 -0.001744194691940373180550 -0.002809044691498728627682 0.003643644307865460257867 0.004943196611526251907365 0.000908794871313179904518 0.001333762791604954384833
12.000000 -0.002820604002381011613659 -0.003732136687797000390576 0.005468793730427018787155 0.007835602503022195616800 0.001651337290536795043491 0.001901364527563737492899
14.000000 -0.004234092185781129259736 -0.005304007161435583990461 0.007420118232223657690760 0.011857812138225183595797 0.003189846829548660320230 0.002782534273771967905237
16.000000 -0.005663962434116744971979 -0.007432031837136256549603 0.008645065417179818856308 0.016429549873039291790766 0.005268160525322687290362 0.004070237250467702988521
18.000000 -0.006083967778856112437746 -0.007952765680313752041930 0.011522922410935356601902 0.023291282912317849695949 0.008198732885889939772661 0.005712583521221547069868
20.000000 -0.007163803309891697210232 -0.009617902892377818563352 0.013403396283111369130525 0.031368478132461748153492 0.011943571332000040355337 0.007643055222662491036967
22.000000 -0.009960331978521478474287 -0.013664248191473606433566 0.013779088784391341909741 0.040076835290428727831546 0.016590835385292435066873 0.009929405465310757461506
24.000000 -0.013216453335544817160319 -0.019052489413318943883846 0.012892523050296558068117 0.049816010517559426717948 0.022129715081805112486535 0.012508233709644345568734
26.000000 -0.015958862945058244209307 -0.023147623388222186152641 0.011918787417859027025213 0.058904245193649722167617 0.027432810506447434517607 0.015378236870353534024303
28.000000 -0.019295594914104412936906 -0.028178767358374160606482 0.009840952804230702899435 0.069751162387977655443549 0.033477486160115824120886 0.017966362553109016531039
30.000000 -0.019023475390175854926600 -0.024907123570868567458136 0.014296433940378504984237 0.084237621205024648673998 0.040718437756151984463493 0.020359272285359577420172
32.000000 -0.019873943651179400149420 -0.025128956040625156920232 0.013798734586406152802240 0.097203867449157668745308 0.047730189758297507374163 0.022899556400708152154033
34.000000 -0.020167681469368928942609 -0.024548708512825000160884 0.013573315149916442834410 0.110232554944484084646916 0.053921172701119561565530 0.025330622646987932533591
36.000000 -0.021280869822330017449019 -0.024234847784842788315229 0.013365448979849108360196 0.125452843942291419887525 0.061502833431395217966831 0.027913012568685384440226
38.000000 -0.023300295406827917221726 -0.026010794650156258966955 0.012019003701757333124611 0.140244607942216686913284 0.068344439026812822679524 0.030260881786806980570104
40.000000 -0.026274330608927257829643 -0.028518679852090576820611 0.013075740749868608805984 0.158538089519151409456654 0.076720349416471669834472 0.032974762919087567680787
42.000000 -0.029678993040425726002152 -0.032549541906537741986494 0.013214964936704055517569 0.175052681962580808372465 0.084620405459037678630452 0.035794261787121292583969
44.000000 -0.032873763281602672026160 -0.036522735105786373333014 0.011805157316645208467887 0.189233122315665969193077 0.091103719948298064745806 0.038691462133518969568335
46.000000 -0.037177472958777602052294 -0.042611847235502986475097 0.007669894080706933341129 0.200303757275001242943446 0.096935440296834554652072 0.041870376577046404531490
48.000000 -0.041958568229133443028278 -0.049641378404174353600187 0.003467308526859992807989 0.212573814964323898335508 0.102674820375211625633760 0.045155104844162671784424
50.000000 -0.047114119778541477256972 -0.057424362210636126224728 -0.000175620799033304123959 0.221742751813742727806655 0.106532221295480511447096 0.048468275091175884450312
52.000000 -0.053024127759538165760578 -0.067921445914075659344711 -0.008001635613420264234175 0.227882059562667937946401 0.109183342098361516048222 0.051466400309485675623744
54.000000 -0.059768394690326263896107 -0.080191861401307351631118 -0.016351552007767729268739 0.233377494402076418600345 0.111824678555719356221054 0.054342648042990514267725
56.000000 -0.066296010951440317859884 -0.090973061108015743081445 -0.020062277053182395875064 0.244549109285662730206568 0.114500286107738338814421 0.056369118931531757288322
58.000000 -0.071765566609065203906859 -0.098438683561987358472400 -0.025722576805123343463011 0.233363528887379684251258 0.115350599574823367565735 0.057841652494180828547599
60.000000 -0.075622663627881822612231 -0.103154263179997054966641 -0.033165808296077133043855 0.203858151221423616883399 0.113905438841788608783645 0.058658340659028383734519
62.000000 -0.078934919590318161630726 -0.106881116934443978760960 -0.041489193269800037078276 0.172318511827669829106213 0.111196090018679846767036 0.058532759484650295767061
64.000000 -0.080486486380043839594656 -0.110036482842909441592916 -0.051485494591885935800057 0.140120817818908172114334 0.105150316335815563473233 0.057296575445177432006627
66.000000 -0.080118608643008668024343 -0.108036390075376659281048 -0.052326735979116363595143 0.117139350729522945249172 0.097652356273761148353074 0.055768708846513026511360
68.000000 -0.078253974115228774888209 -0.103592137164577338670490 -0.049410354168401095231733 0.096149602344733048342462 0.088832347316654125535251 0.053937411749005029215631
70.000000 -0.075777726900007127963654 -0.097759620409926500927966 -0.045159403914692336501346 0.078969694985988755919770 0.076712088279238102583868 0.051605195754341130764953
72.000000 -0.072542388712197383715541 -0.090784831249927921970055 -0.040074326865625974070095 0.058969872140750216604754 0.064619288349285292083479 0.049086635685453093580488
74.000000 -0.067928390697516327634276 -0.079915489207961043494066 -0.031532828031511611621696 0.043737831293160014944910 0.054841051072376849340184 0.046758904595489460265245
76.000000 -0.057684446133082448171514 -0.061288085687580998173196 -0.016771088062010355151932 0.030729687340897267333606 0.044342916948098845542070 0.043473432701844054448781
78.000000 -0.048546651619039433989133 -0.047257527172712567031798 -0.008941114048121864138485 0.014172996884531623498771 0.035492483806283621483590 0.039808068135347450533512
80.000000 -0.042153063272582294573887 -0.037865361051391752122974 -0.004820247339855931317798 0.001079825980176231815105 0.024843941745442021939994 0.033572241118887555244577
82.000000 -0.034573065638296082702219 -0.027241399358871553476602 0.001316725743052368042749 -0.004276888047967828884732 0.013316994529795284432638 0.024694892245563569016520
84.000000 -0.026791429848779441114104 -0.016389910923563989764151 0.008883543073494790803801 -0.003948569179847315722964 0.008138568744472773897058 0.019441987893633303624563
86.000000 -0.020224886860590769732671 -0.008991838967862930687147 0.012557493873497679870432 -0.002647300640124726229391 0.004948787637400931145593 0.014986698930811802321639
88.000000 -0.013927562387910036659222 -0.002722229428497517037672 0.015905984573818757882302 0.000841058223551409043194 0.003179726443867881592598 0.011527224001354946514297
90.000000 -0.008039544829725010083310 0.002475167303174615526101 0.017489364845149017041459 0.002263241585838973290307 0.001768606949604482978661 0.008652481846085066652385
92.000000 -0.002463482683769092039527 0.006175487157547590762185 0.017645016270510127665005 0.003126943000406123135404 -0.000453388695883634939513 0.005415451095369262779489
94.000000 -0.000822073694412520854062 0.005301819637579702725050 0.014333770473595379077447 0.002057764008868068292962 -0.003549605998888383413814 0.002429665825981707199394
96.000000 -0.000562356409099075437753 0.003570162584514495387328 0.010621487224126717821560 -0.000053937073511598611711 -0.005530927991429628216846 0.000245106833524827373485
98.000000 -0.000063398400521574299203 0.003058954622310274071989 0.008567401878822109365097 -0.000475322737108175251679 -0.005668791905994123754564 -0.000809732722572936778997
100.000000 0.000124385111965482128950 0.002319205787254881474813 0.006038484177050174213364 -0.001246650372136119634334 -0.004710972103672306753042 -0.000660226129374482891866
102.000000 -0.000045819675718621372834 0.001117889294995731350180 0.002881951755527745184793 -0.002609870028953161728152 -0.003491182788881910543238 -0.000073528716989095527635
104.000000 0.000027448507847078462414 0.000117163295161458564059 -0.000622170782163122262562 -0.005160071473122478276363 -0.003486675051070154025823 -0.000236913870766917284381
106.000000 0.000192109435757301512350 0.000232946529844169341467 -0.001195544311103940776295 -0.005854031044534083010056 -0.003299537109299754533004 -0.000270909145675988203856
108.000000 0.000430714778900465348945 0.000635607616622135785864 -0.000796846752619778924548 -0.005697741084996392826878 -0.003166968179833190479705 -0.000347479270797847075540
110.000000 0.000682396111857756283194 0.001008830819317093827059 -0.000471038670775015405612 -0.005574580189902623994502 -0.003104204337115243871048 -0.000546356840330751067879
112.000000 0.000875767325587460156167 0.001289642320199340264769 -0.000239125275035641991729 -0.005463244888087963324619 -0.002935167427711904766796 -0.000584016755372650307569
114.000000 0.001039889858983267332398 0.001524945620338351206374 -0.000053395882767321081058 -0.005350912528597734363345 -0.002777557088674465716333 -0.000638483775899722637466
116.000000 0.001260992541720184177689 0.001797361835176706145942 0.000149058309250327773862 -0.005223711886026289469287 -0.002725593296798100098610 -0.000852950691157862385047
118.000000 0.001479353570662216140960 0.002040451773308405141599 0.000293016117356972936436 -0.005168203423425677019154 -0.002777201848975858772955 -0.001115222949497526091361
120.000000 0.001667712709686552594035 0.002223087490639110395951 0.000367477924278088966415 -0.005173940449929114067384 -0.002877089186110039480820 -0.001368277540743625866199
122.000000 0.001797770549828310885851 0.002341317038394144078167 0.000387903005398730063233 -0.005213880960282267496009 -0.002958170996796306503884 -0.001534252732128260632294
124.000000 0.001868360818258103968337 0.002396144914893331458183 0.000356773467178850246188 -0.005288373332422921513363 -0.003010256108813307105582 -0.001593836194605763312282
126.000000 0.001925690421117508353138 0.002439319479781694964549 0.000324804642440422626504 -0.005357746470332395462288 -0.003052954484567842099313 -0.001639665828647097773479
128.000000 0.001974942528096177395136 0.002476777451761783249012 0.000297071151568870344805 -0.005419696961362718487520 -0.003088733043257442523188 -0.001679912678624222556814
130.000000 0.002017515122368110109391 0.002509842236364708597390 0.000273514769928797512894 -0.005476155245061214288382 -0.003119625992670341761703 -0.001715374581986540969414
132.000000 0.002054675139310976113988 0.002539588179626016926915 0.000253837307607649830931 -0.005528699462067527235776 -0.003147267142823042054833 -0.001746940907113929755679
134.000000 0.002087485656925620707003 0.002566832385762310344418 0.000237575798950096363053 -0.005578649962159085672064 -0.003172886970275701559729 -0.001775346868209181760284
136.000000 0.002116827495773829052872 0.002592197961989975169700 0.000224207182366241956776 -0.005627068617359226067320 -0.003197388418688403184664 -0.001801191353890430144752
138.000000 0.002143430332477025499621 0.002616167781113341080784 0.000213210041350400940786 -0.005674823051689138926623 -0.003221425056075379132065 -0.001824973527120029399493
140.000000 0.002167904382970236264183 0.002639130599640521213090 0.000204115519617660443009 -0.005722586083334259624000 -0.003245471883081420261252 -0.001847120823959417026949
142.000000 0.002190767541488468795469 0.002661416633709377289885 0.000196527961415409764675 -0.005770886228629464563544 -0.003269866765420332763159 -0.001868002922581657671355
144.000000 0.002212442369594740023547 0.002683284716431969061518 0.000190099227204464522314 -0.005820132228889095607482 -0.003294851575054100374651 -0.001887938274874648028959
146.000000 0.002233290403086141476252 0.002704967866114974840708 0.000184564916449508664752 -0.005870636016390868086590 -0.003320601283919572595943 -0.001907204562189248079826
148.000000 0.002253611328246322900032 0.002726660815674054015589 0.000179699356273425192186 -0.005922671641287835346545 -0.003347247028416689383634 -0.001926040757118753065508
150.000000 0.002273656906631326204971 0.002748529984420528590044 0.000175330654190665658669 -0.005976443678686704612246 -0.003374892203440561701949 -0.001944653853881225021721
152.000000 0.002293635438391251717138 0.002770717502702750318494 0.000171312039634939443627 -0.006032137919704460074510 -0.003403616102751773602603 -0.001963221097648398284774
154.000000 0.002313725203682068590205 0.002793350795663634370675 0.000167535916346806012297 -0.006089916959218510950080 -0.003433488717917077947400 -0.001981894896363743316381
156.000000 0.002334077825900286035088 0.002816543947065439004035 0.000163919895531930702752 -0.006149920297434594874952 -0.003464576694883051734275 -0.002000809607593265725123
158.000000 0.002354819736606519019195 0.002840391941495132126227 0.000160387255740652702419 -0.006212300510829636863985 -0.003496941462754389433332 -0.002020078498763711993130
160.000000 0.002376063432206745092840 0.002864986928510870976133 0.000156884825822888382537 -0.006277194198197996906352 -0.003530646519914062888418 -0.002039805310994960256543
162.000000 0.002397907112125149346055 0.002890413393397041168231 0.000153370196411586244773 -0.006344740574208423619651 -0.003565752861615304435128 -0.002060078870813315029403
164.000000 0.002420437634152268133181 0.002916746895651010831191 0.000149802298518202114432 -0.006415080985363580748371 -0.003602331009840358411883 -0.002080981048557833511942
166.000000 0.002443737660888390967467 0.002944066209234590981991 0.000146155052870368618251 -0.006488371572376750752442 -0.003640452668366831682351 -0.002102588666593768317731
168.000000 0.002467879781696338380853 0.002972439082725963997028 0.000142393636390657012895 -0.006564770997722650311412 -0.003680189479461039823993 -0.002124969366834871496719
170.000000 0.002492935076968556037252 0.003001936393402466173030 0.000138492320003553130584 -0.006644443879704309274814 -0.003721626715804156847189 -0.002148192759672689928357
172.000000 0.002518975585443576116484 0.003032635197753014589389 0.000134435218111920231103 -0.006727566156620803927702 -0.003764851283620175570466 -0.002172325034332187390640
174.000000 0.002546067518913530149105 0.003064602927240709599049 0.000130195960240798031806 -0.006814324170042594663865 -0.003809953973486946907090 -0.002197430010184477176122
176.000000 0.002574277781244296934432 0.003097911988304897189239 0.000125748429577029048566 -0.006904923048664210125103 -0.003857032730500420392161 -0.002223572122951504928534
178.000000 0.002603679562560933836990 0.003132643622778903593623 0.000121075102918584098202 -0.006999572009972294603375 -0.003906195174572958846160 -0.002250819352168657774133
180.000000 0.002634343913910605107509 0.003168877036649706338545 0.000116154586311095024405 -0.007098496606732639969961 -0.003957555502709001783723 -0.002279240462686818631532
182.000000 0.002666344917616773110142 0.003206694984329678047019 0.000110957906818820163609 -0.007201945095145980899054 -0.004011233825559112724235 -0.002308905248683921097169
184.000000 0.002699761093181650070671 0.003246184539619831506407 0.000105464083958309738013 -0.007310177431076514062425 -0.004067360821625436856364 -0.002339890126277757633616
186.000000 0.002734673892629268642657 0.003287440312434913424616 0.000099644873931754800287 -0.007423473517768350640744 -0.004126076593571549773476 -0.002372272999861578437336
188.000000 0.002771170864868077645532 0.003330560312438161918447 0.000093472196276301176723 -0.007542127775938886960483 -0.004187526900581223752995 -0.002406136425513432774287
190.000000 0.002809343264811104638051 0.003375647168095687392086 0.000086913215721826631824 -0.007666463042382264461705 -0.004251872469514834419757 -0.002441568770925607936850
192.000000 0.002849286611282240023330 0.003422810268250028181702 0.000079933109956536018271 -0.007796819362462230340594 -0.004319284843272313580143 -0.002478663739394241886937
194.000000 0.002891107781376538090473 0.003472170679469745342705 0.000072497452895796149919 -0.007933568373772596424298 -0.004389947864725478668402 -0.002517521892331195040859
196.000000 0.002934916457037835615940 0.003523852726050370927358 0.000064563971068170290216 -0.008077107144013884187927 -0.004464056962373333034555 -0.002558249696773970838920
198.000000 0.002980830544204935306923 0.003577990482172181165021 0.000056090191691351350156 -0.008227861067817787352197 -0.004541824775724062103477 -0.002600961741783440386161
200.000000 0.003028976769168509330932 0.003634725780281794146886 0.000047026431045666479327 -0.008386288887885798293276 -0.004623478330497059717030 -0.002645781028378303440657
202.000000 0.003079489874713474319851 0.003694211254003019768294 0.000037322751405720156024 -0.008552881255457122494645 -0.004709260107728910696445 -0.002692838288926430873049
204.000000 0.003132516721000816461995 0.003756612219501446418152 0.000026920138452189871028 -0.008728165987543324427778 -0.004799434718580198808158 -0.002742276224078623366592
206.000000 0.003188211905424534649278 0.003822103520470856389407 0.000015763403057659284813 -0.008912717866410379760622 -0.004894282326154651696637 -0.002794245513253215858207
208.000000 0.003246741852138709891890 0.003890869056325961614778 0.000003774002007483861609 -0.009107154439038221693803 -0.004994107527752063638293 -0.002848909017337124521124
210.000000 0.003308286232386233646080 0.003963110643443104944006 -0.000009114632045773353824 -0.009312134400118101534849 -0.005099237001426640443491 -0.002906442838006314047239
212.000000 0.003373035888988276144451 0.004039040390905345237482 -0.000022986569683259055390 -0.009528375517860569049455 -0.005210023756344761385051 -0.002967035482217819306050
214.000000 0.003441198057934440144440 0.004118888199621685737573 -0.000037926433032535558946 -0.009756642875553240418229 -0.005326846194343004027572 -0.003030890580253036217795
216.000000 0.003512992949937913424174 0.004202896420910907926416 -0.000054035140546553304681 -0.009997772705013752495007 -0.005450112947041784415558 -0.003098225776839305146970
218.000000 0.003588658338384729737380 0.004291328211625682759189 -0.000071410341486941150604 -0.010252650928299356092310 -0.005580262691783816758617 -0.003169276765737834202635
220.000000 0.003668447485045918388114 0.004384459546731824149124 -0.000090169830953195056599 -0.010522247762933719869571 -0.005717768135988723562924 -0.003244295585950856316421
222.000000 0.003752634051347652176245 0.004482590523663168222135 -0.000110433758760371378196 -0.010807595681778079874102 -0.005863139808173845404782 -0.003323554901196830099752
224.000000 0.003841510459476371250331 0.004586038988982256946192 -0.000132333270206403308313 -0.011109806106489428234596 -0.006016923776937941475973 -0.003407346466142483886602
226.000000 0.003935388132101027766629 0.004695141098244441126008 -0.000156011665623862432308 -0.011430078889599395650101 -0.006179707092744068062939 -0.003495983905864849528022
228.000000 0.004034601828988292580858 0.004810258347678359608368 -0.000181618284276524583455 -0.011769698938282230002428 -0.006352120093369579591214 -0.003589802981451876377067
230.000000 0.004139508466105341899510 0.004931773077181653835988 -0.000209315909708008234371 -0.012130037122403345903332 -0.006534838690076904751947 -0.003689164293961040824027
232.000000 0.004250488399308118871167 0.005060090917673598295834 -0.000239281290656995882611 -0.012512575031140327902479 -0.006728585087629559459421 -0.003794452724910665156882
234.000000 0.004367949202671249017693 0.005195644612170683199204 -0.000271693962609811240361 -0.012918875146829411279525 -0.006934130712619359510063 -0.003906080065919549908909
236.000000 0.004492324280594768570740 0.005338891654334019382100 -0.000306753220295996446593 -0.013350617813885405638086 -0.007152297944989941501370 -0.004024485229349195405946
238.000000 0.004624078356301132911033 0.005490317873074353899332 -0.000344672966497299912945 -0.013809591782556571160079 -0.007383965154252271692603 -0.004150137878669774883778
240.000000 0.004763709324755208487923 0.005650443063378319738521 -0.000385684968497933830869 -0.014297705884418790769907 -0.007630065581033012613033 -0.004283537564486185680868
242.000000 0.004911754878397125816114 0.005819825875667100287258 -0.000430040713548664351156 -0.014816993026884857712067 -0.007891595996460300938002 -0.004425220183823103115017
244.000000 0.005068794785248704332092 0.005999062924631380459839 -0.000478033946223431092590 -0.015369641697789654041784 -0.008169619851335890164945 -0.004575759975965081743920
246.000000 0.005235462529061708260303 0.006188804588341893439529 -0.000529999230098051905130 -0.015958001348410102288033 -0.008465278592257447637381 -0.004735777233746191715313
248.000000 0.005412452926822322769873 0.006389759957472629023356 -0.000586335912696467234477 -0.016584626785383475150448 -0.008779804338034519206602 -0.004905946450511245934822
250.000000 0.005600536076817876421363 0.006602712528694575262744 -0.000647527026070066741813 -0.017252317334954674760139 -0.009114540284864391592179 -0.005087008885916582782982
252.000000 0.005800565946806519185275 0.006828526933920590728799 -0.000714164960800983900438 -0.017964174798500379820476 -0.009470963222773480863492 -0.005279785903313323827679
254.000000 0.006013496017079927001558 0.007068164647446082901605 -0.000786973109504142246708 -0.018723667621384765952230 -0.009850715727243187017081 -0.005485197747227337113085
256.000000 0.006240388783477722293991 0.007322690942900189105258 -0.000866825815308985359389 -0.019534707646702089561819 -0.010255642352811235665233 -0.005704282281379384825226
258.000000 0.006482422263768160795860 0.007593277664561476868188 -0.000954763191452841718763 -0.020401730700086322112252 -0.010687829031665416201768 -0.005938215055400536748764
260.000000 0.006740890552770184042386 0.007881198320724583025743 -0.001051985073277779316608 -0.021329765071510221885465 -0.011149641015330001223016 -0.006188325639236623432193
262.000000 0.007017194632520885530513 0.008187809198282901268495 -0.001159832233116104074910 -0.022324489096635546231395 -0.011643757626201607299765 -0.006456108550258664487143
264.000000 0.007312817582949595815456 0.008514512218625990697118 -0.001279740370751954224929 -0.023392255495177802226969 -0.012173189437988772912402 -0.006743221896086140816629
266.000000 0.007629293247335437386236 0.008862708540350304822764 -0.001413165962836778052555 -0.024540067865049811773881 -0.012741276328106820522890 -0.007051472447468762165534
268.000000 0.007968164117822595232665 0.009233746228413124493284 -0.001561484770048904768477 -0.025775495441800688745104 -0.013351652892937829891773 -0.007382781216185741769709
270.000000 0.008330937587905370284025 0.009628869115316688459538 -0.001725875042130332187584 -0.027106540674311105365568 -0.014008182120016466482015 -0.007739131594398912690480
272.000000 0.008719049840547008281555 0.010049181789985329668613 -0.001907206896212514622702 -0.028541446536976204650937 -0.014714857505621422792408 -0.008122504194714949901646
274.000000 0.009133848214640770402095 0.010495651006689254991500 -0.002105963038813172920338 -0.030088487144854722532550 -0.015475678628129804770275 -0.008534806625507053087776
276.000000 0.009576601460249937677882 0.010969156540443905645255 -0.002322208396798196815281 -0.031755768656457711296426 -0.016294519690263263578256 -0.008977813455281011961739
278.000000 0.010048554284090634169946 0.011470609485987610931534 -0.002555622200337394692160 -0.033551051527332523272129 -0.017175006447144852000930 -0.009453130851660402483860
280.000000 0.010551035462998568578707 0.012001163518216607234423 -0.002805567569525441694311 -0.035481654577315023535444 -0.018120428459185072833648 -0.009962205974289629895058
282.000000 0.011085611458005606086430 0.012562475519149702424260 -0.003071228296594529817709 -0.037554422578104304508706 -0.019133696574685658819970 -0.010506386544362924032048
284.000000 0.011654287165242468299331 0.013157008926836974774255 -0.003351806141144347220978 -0.039775827006040799516118 -0.020217390068308908890327 -0.011087039120006079648273
286.000000 0.012259727224933967063003 0.013788327734914581843007 -0.003646768855583687549832 -0.042152183376974960982153 -0.021373890896631889818602 -0.011705718045926892870168
288.000000 0.012905480375556376351764 0.014461336092988993223818 -0.003956187714343541682316 -0.044690046535300745333963 -0.022605630569167280835563 -0.012364380468386452355256
290.000000 0.013596148666533013418811 0.015182359050653924936736 -0.004281191617214289389659 -0.047396783820235245665575 -0.023915461019134033604505 -0.013065632091198646491659
292.000000 0.014337428678557952166361 0.015958978141986313731282 -0.004624500354606425091275 -0.050281338174680334507372 -0.025307139367005945795874 -0.013812982144289959879346
294.000000 0.015135879840595934525682 0.016799480336420234000139 -0.004990780001215272890236 -0.053354933742506285843099 -0.026785832264096125915342 -0.014611051838488337689670
296.000000 0.015998053120235746632494 0.017711574473053749712026 -0.005386215398486364318298 -0.056631051502815256404322 -0.028358357027507778008735 -0.015465582765408748822100
298.000000 0.016928478181317544587481 0.018699989636605570536565 -0.005816080406744473553504 -0.060123318189072724737620 -0.030032584268180905623380 -0.016382912843273107067477
300.000000 0.017926449097598353560334 0.019763168485621561420995 -0.006278929221737712326745 -0.063839551056526180894402 -0.031815160168094318293708 -0.017368395946733939522177
302.000000 0.018983352636001152996537 0.020891118887784703578303 -0.006758354604758158752642 -0.067772248694967507365305 -0.033707214183652321748408 -0.018423443393717778282515
304.000000 0.020083686602701562168294 0.022067846478858777620191 -0.007217401257769998947078 -0.071889936231785023235119 -0.035699339022972342849727 -0.019541858358574918513861
306.000000 0.021209812028362893393529 0.023278255186076124427785 -0.007602157431216670889496 -0.076135548685491910569922 -0.037768608535560937999875 -0.020707326073145026351652
308.000000 0.022345934723995038856392 0.024514538983436390262582 -0.007853839183420162350924 -0.080432391399632804929176 -0.039879407641626028746540 -0.021893970337090829653137
310.000000 0.023478513452531993982442 0.025777015913477089453787 -0.007921893113647354711659 -0.084692272442377120045265 -0.041986729784424046962865 -0.023070453875750553118795
312.000000 0.024594577696509831860050 0.027067071143697159912866 -0.007775089992343761635674 -0.088822518037978581695313 -0.044039362935797479736699 -0.024205926052727467362446
314.000000 0.025681762856762015839740 0.028380120243211463121336 -0.007406283661290434354452 -0.092729392922435871504661 -0.045982196351729349992343 -0.025275041551540231715700
316.000000 0.026734269785944012737255 0.029714863376530144950527 -0.006820029134492592431949 -0.096314940348492542043779 -0.047758624652302163193784 -0.026260442577930344365544
318.000000 0.027759635411047901831783 0.031091940971318385300570 -0.006008825713089491725449 -0.099469051693731505570106 -0.049312260013306422057333 -0.027152360008388626982923
320.000000 0.028774928473650356747227 0.032553839803888560966438 -0.004943025432262054472132 -0.102063947863106949109913 -0.050586292953539266359364 -0.027945511034276036138602
322.000000 0.029794600983223399476296 0.034144767573773632252099 -0.003581956889004362602075 -0.103956301355014740783744 -0.051522723596032805881695 -0.028634418704544657013900
324.000000 0.030820325413663841873646 0.035887618030564005788818 -0.001900700057625575277453 -0.105002695326665423936063 -0.052067654897642437483718 -0.029209563761841583762191
326.000000 0.031835832380674833341772 0.037763888516204296985634 0.000076017399868201011013 -0.105086277387172993824649 -0.052181848295372076917964 -0.029656017084830298830012
328.000000 0.032805407031210653823194 0.039701292066518345524884 0.002258289043953618218524 -0.104134752509015368615586 -0.051847793611674498903685 -0.029954270288336710265087
330.000000 0.033675840595616041150961 0.041574853926007779292284 0.004506657563780861255887 -0.102113347070266674565531 -0.051068300853693827934254 -0.030082214283421681438879
332.000000 0.034382337025081755044198 0.043218810704063803651565 0.006659265573069234576964 -0.098998649644875050257475 -0.049858255420308535132978 -0.030017963809387631507475
334.000000 0.034858495082292460798268 0.044451265940672113341492 0.008561392597568653548001 -0.094754281041090820947304 -0.048233011276148970991606 -0.029743479270719457019378
336.000000 0.035047456317356284749565 0.045116005486493332421460 0.010101469046855642702765 -0.089334188593390984056697 -0.046199062306766111585254 -0.029247985087550762428599
338.000000 0.034907527605669758097306 0.045119057080328511810663 0.011230264686042849484049 -0.082729641580291946034720 -0.043753723604077483788632 -0.028529428808114237758886
340.000000 0.034409429135148654477216 0.044426877200538360257465 0.011931829992976811585792 -0.075047388916903060018804 -0.040895358352841013060974 -0.027593610722416634511989
342.000000 0.033532818814225817671826 0.043038763874129921938039 0.012176754645698466619774 -0.066560311509907613136683 -0.037638006594311018693233 -0.026452650215426701946209
344.000000 0.032269610699062263592385 0.040971797078016979065662 0.011917451237449491405207 -0.057665650107449402395066 -0.034026456608329570807658 -0.025125190951940604838777
346.000000 0.030630948363566556924553 0.038268250225071367975893 0.011129459611911701397147 -0.048771352526787783987494 -0.030151466371013350281638 -0.023637649435044733037259
348.000000 0.028650126546695322410363 0.035008163599704669732837 0.009852132480323745611361 -0.040205987987941047001605 -0.026155405816819736475320 -0.022022686609497861554008
350.000000 0.026380793395171769910590 0.031313375286616221271352 0.008195777765708208220663 -0.032200619331768376429892 -0.022215521280492405570284 -0.020314331503282018198675
352.000000 0.023895525417931842704355 0.027342889406431137439002 0.006317023768885853159116 -0.024922007176073780049252 -0.018507128615769509460964 -0.018543016636769046184829
354.000000 0.021281451746706831623657 0.023275908679281382546167 0.004377499211967119177591 -0.018517670294027899213773 -0.015162734565144279225146 -0.016732778944132872811501
356.000000 0.018627482281889162080146 0.019282772927822499492434 0.002507189725566764167825 -0.013130727020480596409224 -0.012247699268850952697418 -0.014902670290685687132237
358.000000 0.016008643921487587108432 0.015500166561144619603585 0.000793105386513028184046 -0.008859106615724240962884 -0.009764556963470625086665 -0.013073793436892661157245
360.000000 0.013480612409893684422446 0.012028261105232963129597 -0.000704410786601193509605 -0.005693750297470450208448 -0.007677711671933586286276 -0.011277158260088295319012
362.000000 0.011088320032077532070747 0.008944480093326124051090 -0.001929456407789437166755 -0.003499562571528403928656 -0.005935437809577899515023 -0.009552942962018116240808
364.000000 0.008877779968173927019337 0.006311351140018375133200 -0.002829778505553587515664 -0.002061555370127387577794 -0.004483288031527261907616 -0.007941036133197722224342
366.000000 0.006898534372652738964893 0.004168994540731056804017 -0.003377997055186332704679 -0.001158754397867422505572 -0.003273590727289321482274 -0.006472024914019189160974
368.000000 0.005196665210997624372025 0.002525842596327570153958 -0.003585717589661427742720 -0.000611196292052093820106 -0.002270259368777974469389 -0.005165006161824100758273
370.000000 0.003803199417799195576617 0.001356672512395862241139 -0.003498152011023494649400 -0.000288669596036018416638 -0.001450435678210895782542 -0.004031320495945126675119
372.000000 0.002721355881464903193195 0.000603759810960253747239 -0.003181488377444982064424 -0.000101976450034962801161 -0.000803534440536421965852 -0.003078622998158201534702
374.000000 0.001923062316177403825029 0.000183660950542633387558 -0.002711205430589899625232 0.000008635013966797265065 -0.000325155699565241442048 -0.002310613079793381093724
376.000000 0.001359716468824259541850 0.000003058980884483585473 -0.002161568803662750060113 0.000082848725225456054016 -0.000005834571417424976737 -0.001721612541902353687995
378.000000 0.000976341457245405637023 -0.000026433371934090624993 -0.001601276640535658369463 0.000143005307390966552878 0.000178522400221983100444 -0.001290632507286001073518
380.000000 0.000720925349322836363578 0.000019937163494341938113 -0.001091911011699433402614 0.000192489586881325498973 0.000263890426731844057132 -0.000983898704520102607499
382.000000 0.000550449201455767921608 0.000087104482999277182162 -0.000677623526686787960166 0.000222470113624509055732 0.000285387305835698031585 -0.000766012999552795510738
384.000000 0.000434108715527848883567 0.000144682789056474708604 -0.000373289801799873359033 0.000226055071008228312566 0.000268416215977961860033 -0.000608963316726653385198
386.000000 0.000352010705733122697229 0.000182324554432475852877 -0.000168384549190802771486 0.000204808217488909973577 0.000229061863080397563929 -0.000493283576805173679114
388.000000 0.000291500518566716623845 0.000200059419482596651928 -0.000041511839072592307087 0.000165857481280926429218 0.000178116974953429295760 -0.000405413617931769801935
390.000000 0.000244359738119710734328 0.000201396186048560896665 0.000028797254951976341988 0.000117216713202714385689 0.000123933354452278516634 -0.000335542062893958575875
392.000000 0.000205391764449168191245 0.000190586886092479414374 0.000060413348862159950490 0.000066083444281835615692 0.000073320242778213273326 -0.000276865910784548311524
394.000000 0.000172023209374288946032 0.000172279910430833379034 0.000067757345013033654091 0.000018227176089165550611 0.000030978032270639604821 -0.000225845462558449947606
396.000000 0.000143644116867464147246 0.000151078076483042439545 0.000062012998945640862331 -0.000022458479518400831048 -0.000001279616323049090663 -0.000181980969778387005045
398.000000 0.000120436728863817360796 0.000130650750070077667584 0.000051123959349356206414 -0.000054076625236065878398 -0.000024203543645031602212 -0.000146075571395415154587
400.000000 0.000102244253060267936803 0.000112978697874468840545 0.000039604846010045041487 -0.000076841548101085749550 -0.000039691141435949442440 -0.000118231967775795116936
402.000000 0.000088311235897774176262 0.000098548150166503491816 0.000029480975077250545996 -0.000092066860544134468424 -0.000049610876420203081302 -0.000097355750220419620070
404.000000 0.000077686269447559846459 0.000087058851861328186974 0.000021319143144949026259 -0.000101473212708244419191 -0.000055511727062236036821 -0.000081874055698316221307
406.000000 0.000069517090763499328671 0.000077996287985701505635 0.000015103853593964721439 -0.000106547839742810425347 -0.000058550925038891575862 -0.000070357855440492046879
408.000000 0.000063162626299504204459 0.000070846502199999229635 0.000010566285317138120528 -0.000108456289584997006776 -0.000059590821370389594302 -0.000061739703179379456436
410.000000 0.000058150292181258351717 0.000065190083560456206849 0.000007402789194804866864 -0.000108160996623706448494 -0.000059288934731320908458 -0.000055244090683956547901
412.000000 0.000054136283383733008689 0.000060678168621318125196 0.000005290345157026015131 -0.000106333068385288913717 -0.000058125271521850843898 -0.000050288923492233520893
414.000000 0.000050827138018481951163 0.000056984191921761694869 0.000003954068086586392050 -0.000103519434001613384248 -0.000056458585116645755000 -0.000046441607488833459481
416.000000 0.000048033082192038073163 0.000053881746128852476760 0.000003135801112450984394 -0.000100087344418716344763 -0.000054520062522097565696 -0.000043368135825745442061
418.000000 0.000045593495952403150753 0.000051166876632315266089 0.000002618155992815890728 -0.000096337294245160540922 -0.000052457791802141698421 -0.000040818235180605622709
420.000000 0.000043395871666114823977 0.000048727297141350691821 0.000002328058849835435700 -0.000092349186812944433333 -0.000050329973740896371886 -0.000038617805943294733451
422.000000 0.000041366933532647780691 0.000046467641606146542585 0.000002141673744869314799 -0.000088263142444013336241 -0.000048172233654666983885 -0.000036655377904356164717
424.000000 0.000039468640611851870585 0.000044338083152385254077 0.000001995249992740330566 -0.000084196825424575225875 -0.000046031074942683542449 -0.000034868567421275302291
426.000000 0.000037672093928339269418 0.000042309245138982793473 0.000001896957892721520813 -0.000080201124348942303050 -0.000043924602362087606354 -0.000033210967813738285126
428.000000 0.000035946885179325791123 0.000040337015174321919520 0.000001751711711416079438 -0.000076365981103574079206 -0.000041858945082591604071 -0.000031648750113889025342
430.000000 0.000034279909711751771787 0.000038422631897494669299 0.000001609830265741296148 -0.000072649280567459891792 -0.000039846116620646358255 -0.000030168567246332360761
432.000000 0.000032678630429253235890 0.000036578657163122274142 0.000001479867525683410161 -0.000069046105652986470755 -0.000037900291875603675897 -0.000028755250025928466779
434.000000 0.000031150797908506341481 0.000034820284831108672509 0.000001355978320781466605 -0.000065573686902416691564 -0.000036049669316864051388 -0.000027411227253877366779
436.000000 0.000029673444418263635958 0.000033105836992543221959 0.000001207092478910583163 -0.000062323932130396787516 -0.000034302770302651916881 -0.000026125016098798283990
438.000000 0.000028259016313437263152 0.000031490483268075037965 0.000001120447100422850778 -0.000059180180845055896063 -0.000032638687766583629035 -0.000024891796114067484322
440.000000 0.000026897113555626524527 0.000029914344407415996386 0.000000996639854044830763 -0.000056272877513863174461 -0.000031062823663752831980 -0.000023707068769108146722
442.000000 0.000025587343416798149565 0.000028416038348397998023 0.000000895133202024527497 -0.000053517750693961612838 -0.000029557868419520432553 -0.000022564804199476098609
444.000000 0.000024338483502946799526 0.000027002944863384226062 0.000000803621183344779251 -0.000050941662351611944877 -0.000028129748387673600922 -0.000021477403426371893114
446.000000 0.000023129534795698504361 0.000025641727793548104841 0.000000714815971134986599 -0.000048518689565190706401 -0.000026767491405819254503 -0.000020434686730738699261
448.000000 0.000021984884660559504259 0.000024365618285433018767 0.000000651624475928392038 -0.000046201510562871366211 -0.000025465824455481157561 -0.000019436743108844147811
450.000000 0.000020901003012322357655 0.000023182883985155162276 0.000000645046628593667624 -0.000043976133466652498152 -0.000024225234146323006422 -0.000018489389245347653037
452.000000 0.000019887989878987593744 0.000022057161312553368076 0.000000602292149943385634 -0.000041880921469754197933 -0.000023041219813733392806 -0.000017587542418498659401
454.000000 0.000018923550072196791705 0.000020996580780488365329 0.000000592423155665206701 -0.000039832832406138559398 -0.000021910745780946999531 -0.000016726182733509231112
456.000000 0.000017998111510494420892 0.000019979802499242642301 0.000000581863551645841990 -0.000037902825460722152663 -0.000020840501445054059163 -0.000015910237343582733452
458.000000 0.000017127853423062559389 0.000019038024493938679688 0.000000610702317376215689 -0.000036041304924296786434 -0.000019832878144872182846 -0.000015138176291558238585
460.000000 0.000016326322914031423837 0.000018164192072570743209 0.000000614718018277009365 -0.000034245500737479355206 -0.000018877035181429711983 -0.000014408840985439937824
462.000000 0.000015537802092669569473 0.000017305835720262400168 0.000000612946252780647642 -0.000032610888500325418179 -0.000017951871425524264285 -0.000013712578496581313348
464.000000 0.000014792327673521079985 0.000016484950094761013521 0.000000576369264976819990 -0.000031044247958315287388 -0.000017071145707677070507 -0.000013048194010764552206
466.000000 0.000014067369448521696392 0.000015662289997499274235 0.000000512336290870279220 -0.000029513703939065028420 -0.000016249042464052730839 -0.000012423153865022175063
468.000000 0.000013389406896097316146 0.000014913413572900206195 0.000000519308677473490545 -0.000028024911506520681307 -0.000015449722248547380528 -0.000011821291869051401188
470.000000 0.000012738552762545421302 0.000014160733209323796429 0.000000450309580449559903 -0.000026650392108968843486 -0.000014703498182549456182 -0.000011248249710371220926
472.000000 0.000012108283805540793465 0.000013469184030287009092 0.000000445782234677036098 -0.000025320491112022612415 -0.000013971344172055015745 -0.000010695948040342896873
474.000000 0.000011524856307011792795 0.000012802708303804570753 0.000000403541884819837132 -0.000024085902710005955440 -0.000013279712125636174188 -0.000010180450591737130636
476.000000 0.000010970090049014616417 0.000012207666367893578780 0.000000407715335492045376 -0.000022867082692481347953 -0.000012637358709599832681 -0.000009682122260815793398
478.000000 0.000010418611128922414857 0.000011585393427142897898 0.000000355898531636913794 -0.000021749239078092217904 -0.000012023763063592471094 -0.000009209053504521586323
480.000000 0.000009900351738882598332 0.000011001223783498195342 0.000000294078285776294072 -0.000020745345712794660098 -0.000011418051902443539708 -0.000008754078422821667317
482.000000 0.000009431410420586417136 0.000010487500391128082609 0.000000306298328085242173 -0.000019768109081382680912 -0.000010873706765635737662 -0.000008334974224436488273
484.000000 0.000008964012817759477134 0.000009949030534859272537 0.000000235092095741318840 -0.000018820359448103269950 -0.000010343088806969820078 -0.000007923783819309286578
486.000000 0.000008544240123743901855 0.000009490862678679863775 0.000000269800183099797656 -0.000017880405565405736945 -0.000009846803965348662675 -0.000007542260710059303075
488.000000 0.000008117179835632561439 0.000009016569966267580985 0.000000268074955743327334 -0.000016911173148369456687 -0.000009358122850600700425 -0.000007171220138767450859
490.000000 0.000007723451412498444344 0.000008561712704321454128 0.000000209903074994239413 -0.000016156244061689897383 -0.000008919460550682460528 -0.000006824172400108502874
492.000000 0.000007344715906978025804 0.000008148459399030092321 0.000000227929705049397657 -0.000015404467799635051346 -0.000008517413848456282477 -0.000006496468009322827836
494.000000 0.000006979530693742852239 0.000007731127067298637994 0.000000220652840916907434 -0.000014630711393398391452 -0.000008128299913964457722 -0.000006184616126028956130
496.000000 0.000006652783710693907659 0.000007383016055442283953 0.000000250358507103553017 -0.000013942761036213917588 -0.000007760380664368801121 -0.000005891849468936838289
498.000000 0.000006315699840971350063 0.000007013469549430003297 0.000000226980559215748954 -0.000013257248124609600687 -0.000007390871014405668568 -0.000005605572293835461982
500.000000 0.000006005321798736489643 0.000006646976802272855120 0.000000139166852056786343 -0.000012696918412029828920 -0.000007030451022248306293 -0.000005327141107087528501
502.000000 0.000005722194691427181101 0.000006334128967350640928 0.000000113804857979193383 -0.000012129099243971078756 -0.000006708028987444264750 -0.000005075136611152965518
504.000000 0.000005450814933565220253 0.000006037189745235174408 0.000000136846599429440657 -0.000011497556331132322561 -0.000006410195029961746322 -0.000004838021705832206857
506.000000 0.000005195361985217489166 0.000005761834715243496008 0.000000164536511127326270 -0.000010915804946829732829 -0.000006113451316587200511 -0.000004615239975927460567
508.000000 0.000004953460606223424972 0.000005483432280287346695 0.000000111885433413662775 -0.000010454016083659738916 -0.000005813051878755673257 -0.000004396314131880199648
510.000000 0.000004711284894481222866 0.000005207432734044652032 0.000000100417693670861150 -0.000010004431769998063821 -0.000005536804085142124052 -0.000004191525009456361023
512.000000 0.000004482298006571745567 0.000004968703258190224253 0.000000097808162238982819 -0.000009490803652098955422 -0.000005277172969214469320 -0.000003988886023694832832
514.000000 0.000004275205740765160672 0.000004748500718619985554 0.000000137680020630270432 -0.000009014848944038616392 -0.000005038059590889608468 -0.000003800971008792982483
516.000000 0.000004081184186868624676 0.000004539024113691237106 0.000000176834479648782740 -0.000008519102875460773898 -0.000004814103727435046989 -0.000003625889405287786098
518.000000 0.000003874985797486629109 0.000004302350092973914563 0.000000142097327163580803 -0.000008148676218461590955 -0.000004606671868419021584 -0.000003455200485753184167
520.000000 0.000003679428401779003797 0.000004071780589723263138 0.000000108581370403985380 -0.000007755788088255759395 -0.000004387482539894561874 -0.000003289001227759329125
522.000000 0.000003523226209514002982 0.000003894508088164946382 0.000000081072603443964421 -0.000007452994152922870781 -0.000004190899294207768030 -0.000003135388025711569247
523.980000 0.000003371181412592062401 0.000003725935206722491361 0.000000014797326905545424 -0.000007220489701127021444 -0.000004009702557450840674 -0.000002991094182303843326
