0.000000 -0.000000000000000000000000 -0.000000000000000000000000 -0.000000000000000000000000 -0.000000000000000000000000 -0.000000000000000000000000 -0.000000000000000000000000
2.000000 0.000338040712341800139110 0.000154477207105876371968 -0.000533562052796820746742 -0.001011306735135217467481 0.000056605989528722949321 0.000245949217253688156345
4.000000 0.000240406016844684693005 0.000157948915702865814439 -0.000083998699228856176110 -0.000227687339390993353887 0.000145316160758987247175 0.000191825394305556725738
6.000000 0.000123015403532586008878 0.000074063649599691229897 -0.000026585881222652327737 -0.000078375086761684907479 0.000083838423581188332729 0.000103564660442495573502
8.000000 0.000060999685849307031221 0.000031325172229550454848 -0.000012110592279849082960 -0.000030865999395410269931 0.000044704766258659975385 0.000054230657330389942493
10.000000 0.000030783869058136936780 0.000013103106717759008937 -0.000006361976839983907308 -0.000013232583557548639031 0.000024027013488810277118 0.000028740720689524411590
12.000000 0.000016151290081736427987 0.000005913333155141596680 -0.000003114794291193755778 -0.000005726933353891249269 0.000013417724652122732049 0.000015665119498584255750
14.000000 0.000008972976558764548228 0.000003227320912895832259 -0.000001064511090314430625 -0.000002122278406034754831 0.000007941718272194238972 0.000008903673125192962371
16.000000 0.000005348569131346452424 0.000002215817546105864656 0.000000163337231986577780 -0.000000288288151190347903 0.000005033237995944031154 0.000005337526652666772315
18.000000 0.000003334106160534581428 0.000001657492384650534558 0.000000685287183789433029 0.000000492010615675441626 0.000003305576451755675336 0.000003314124349589472548
20.000000 0.000002185934366643780240 0.000001310346444045192909 0.000000876329282336998307 0.000000804995547090275251 0.000002262169147613736902 0.000002145196874474084031
22.000000 0.000001417612225765011542 0.000000963397922650650519 0.000000786696137257224199 0.000000773166435296688079 0.000001517403816125408463 0.000001379288519761696534
24.000000 0.000000903157677927589684 0.000000669302607924984779 0.000000615434795158462370 0.000000629809770457856525 0.000000996677797370230853 0.000000875812356409308530
26.000000 0.000000529312904992518445 0.000000404615071403543536 0.000000403476670946625706 0.000000430252875449685799 0.000000606581152526361486 0.000000520963904941612965
28.000000 0.000000329360154600390514 0.000000268821779776968753 0.000000300088719638637267 0.000000334886933866359905 0.000000393748447634535694 0.000000326223827782474615
30.000000 0.000000196618712502354022 0.000000169657233451242740 0.000000217175714760835281 0.000000256419340817476901 0.000000250278557881999786 0.000000198527836015619238
32.000000 0.000000114285594905758368 0.000000106073825756896361 0.000000163569498576517445 0.000000206012351395986402 0.000000160618553045527025 0.000000119365154112929913
34.000000 0.000000065070031183519634 0.000000068002320438209900 0.000000132915696614932850 0.000000178131173359712275 0.000000107077986339853802 0.000000071807644445766966
36.000000 0.000000010404858511402768 0.000000015656009039597507 0.000000082124223417477304 0.000000129074826770334180 0.000000048697939258104499 0.000000023393714952089255
38.000000 -0.000000054250178362817282 -0.000000052818683435504716 0.000000010749869508691076 0.000000058516585151237512 -0.000000019481285566897244 -0.000000030839890219260297
40.000000 -0.000000055746079877944975 -0.000000049694737064771016 0.000000020473452350817220 0.000000071408106298390703 -0.000000020370177780075112 -0.000000033921675454986404
42.000000 -0.000000079385775394396922 -0.000000073841837739877917 -0.000000001621150091127485 0.000000051359970476663121 -0.000000044049953508468428 -0.000000053654886871039432
44.000000 -0.000000099141504210355182 -0.000000094557757563739612 -0.000000020365003214313525 0.000000034906344974253093 -0.000000063457709377088018 -0.000000069730979020069156
46.000000 -0.000000070744576994201017 -0.000000058976735892807095 0.000000025542309030624566 0.000000084877844908945302 -0.000000031796160490623361 -0.000000047625872205702187
48.000000 -0.000000113690648155320129 -0.000000107772338721832401 -0.000000025822252478610288 0.000000034819560618328727 -0.000000075339998502000526 -0.000000081493265365295474
50.000000 -0.000000083750410471636439 -0.000000071071069268415437 0.000000020974154603184129 0.000000085818878462673036 -0.000000042049764294950809 -0.000000057867505485783960
52.000000 -0.000000240061022363676979 -0.000000253166151971285319 -0.000000183386810468885886 -0.000000121730527792171601 -0.000000204583516338779951 -0.000000180722129936654843
54.000000 -0.000000246850804917933015 -0.000000259953306660239442 -0.000000186886407968109495 -0.000000122516495623774709 -0.000000210238398359393241 -0.000000185997798106486630
56.000000 -0.000000278169147173997069 -0.000000295497887681121934 -0.000000223217248315261513 -0.000000157037805185870250 -0.000000241303105610285343 -0.000000210355063915211870
58.000000 -0.000000241978317419951295 -0.000000251445691466428358 -0.000000167811418438409510 -0.000000097270088273913103 -0.000000201085124631207818 -0.000000181671458549608954
60.000000 -0.000000241052083193460304 -0.000000249216031980050266 -0.000000160927898604861302 -0.000000087354884236747012 -0.000000198430762594273891 -0.000000180742655611555947
62.000000 -0.000000140811902795027446 -0.000000129882448703132566 -0.000000019016024116893112 0.000000061492257596881723 -0.000000090600054943745781 -0.000000101480732258092859
64.000000 -0.000000210108652751474952 -0.000000209883426618338297 -0.000000106242113255922037 -0.000000025495504872619370 -0.000000161470864700054374 -0.000000155717070884700694
66.000000 -0.000000128909933414034657 -0.000000112920141480604618 0.000000010020446289355380 0.000000097048643495022201 -0.000000073575904682796467 -0.000000091344840423950277
68.000000 -0.000000065190240469648615 -0.000000036617479387215964 0.000000102446732968342251 0.000000195065758612719603 -0.000000004327459073619483 -0.000000040876445073783089
70.000000 -0.000000101678570448839498 -0.000000078364494419600142 0.000000058975167819114087 0.000000153300035985620770 -0.000000040933523586490408 -0.000000069317458783062404
72.000000 -0.000000142279353029960862 -0.000000124665354512022018 0.000000010552687654561397 0.000000106319768348221049 -0.000000081498901104944066 -0.000000100885168782709206
74.000000 -0.000000163412371905894673 -0.000000148330785956658248 -0.000000011961799400231719 0.000000086127742066410142 -0.000000101631718331977731 -0.000000117128324218163287
76.000000 -0.000000135539472638823671 -0.000000114449031292533537 0.000000031301192245326138 0.000000133583684764012209 -0.000000070745317823404369 -0.000000095045738694840058
78.000000 -0.000000114453392873108822 -0.000000088370243769084566 0.000000066071445056153357 0.000000172371956857116983 -0.000000046416172969285582 -0.000000078139807581309763
80.000000 -0.000000119959554346831557 -0.000000093546507022242631 0.000000064762276861798283 0.000000173925025518549284 -0.000000050351499451454018 -0.000000082300140105280326
82.000000 -0.000000073842710817554932 -0.000000037781238524203785 0.000000133861378617207423 0.000000247953993008244780 0.000000000607361553603647 -0.000000045629367325769440
84.000000 -0.000000121645852853647582 -0.000000092716905929003325 0.000000075465109135808226 0.000000190871763527298131 -0.000000047861732266996037 -0.000000083044673550992595
86.000000 -0.000000122041151744137680 -0.000000091963790096149682 0.000000081083548991868052 0.000000199712554612490907 -0.000000046201126240581708 -0.000000082967157531123531
88.000000 -0.000000190207524660364593 -0.000000170834608277327972 -0.000000004689058836826719 0.000000114614013365974922 -0.000000115917434962493310 -0.000000136268579352406809
90.000000 -0.000000124806127009325194 -0.000000092376737319694857 0.000000090494053673405933 0.000000215542705327086168 -0.000000044766202601471257 -0.000000084451365947674074
92.000000 -0.000000100033239886143396 -0.000000061915964575326720 0.000000130412752440211379 0.000000259728045533428487 -0.000000016603083395135549 -0.000000064708036303724890
94.000000 -0.000000187956256952451380 -0.000000163955278835447804 0.000000018066608139702401 0.000000147269288049926589 -0.000000107168443976464005 -0.000000133612883288563630
96.000000 -0.000000188172065761328880 -0.000000162486844501836271 0.000000025116119351423468 0.000000157574994307941963 -0.000000104825509048174014 -0.000000133385818955236485
98.000000 -0.000000202419143699953746 -0.000000177764757656168971 0.000000012754726953606718 0.000000147991819308848010 -0.000000117496415862320071 -0.000000144220375147740401
100.000000 -0.000000177413871687027826 -0.000000147139179665174066 0.000000052781244424172950 0.000000192409212180147881 -0.000000089232287523420618 -0.000000124265897435903781
102.000000 -0.000000285718392411720412 -0.000000272600593094021318 -0.000000085438384213186391 0.000000053373225589986115 -0.000000200148228591955043 -0.000000208921994168397589
104.000000 -0.000000234775899576360037 -0.000000211551535582031829 -0.000000010351203544428283 0.000000134042143471528306 -0.000000144231258571100291 -0.000000168268636910204783
106.000000 -0.000000307096459168944913 -0.000000295079656950675623 -0.000000100978454606277767 0.000000044067105574124243 -0.000000218149453382373310 -0.000000224985010695098830
108.000000 -0.000000103579176243653243 -0.000000054284722707819069 0.000000180806815432042816 0.000000337194067156126172 -0.000000001515041185029461 -0.000000064463377240025993
110.000000 -0.000000163323507082497249 -0.000000123377806227936162 0.000000106369460328489203 0.000000263947445408652555 -0.000000062658738849191883 -0.000000111258170763837117
112.000000 -0.000000140599563710813722 -0.000000094835590585382297 0.000000144468539346593670 0.000000306111666187607992 -0.000000037086372547774299 -0.000000093621183220824709
114.000000 -0.000000210972761823242147 -0.000000175381489226410558 0.000000058201411286039382 0.000000220739219761147356 -0.000000107679089663308086 -0.000000148229141270631558
116.000000 -0.000000340915781105074285 -0.000000326461325817417091 -0.000000109707138814034504 0.000000051429243620943103 -0.000000241699993156230226 -0.000000249877467381183390
118.000000 -0.000000377670536333207255 -0.000000368162124463893275 -0.000000152321492179547840 0.000000010983123432241428 -0.000000278642046764601100 -0.000000278883732160348848
120.000000 -0.000000435145790579567475 -0.000000434049114392715405 -0.000000222172556615548072 -0.000000057322609968061105 -0.000000336234846179798244 -0.000000323483778859796439
122.000000 -0.000000359996039392038955 -0.000000343941323535271807 -0.000000113104884222467654 0.000000058112049932509282 -0.000000254832609488621385 -0.000000264129801523712149
124.000000 -0.000000443772509001951304 -0.000000440642196900975902 -0.000000218106821089892160 -0.000000046383732840269741 -0.000000339947042400097482 -0.000000329489327470486848
126.000000 -0.000000330494293304519408 -0.000000306401726995602796 -0.000000058856202878296377 0.000000121030205158769704 -0.000000218855020877851238 -0.000000240056181994021179
128.000000 -0.000000277359831702426224 -0.000000242384914787447265 0.000000020336793586583556 0.000000205983562297036058 -0.000000160728197057084894 -0.000000198082986357689245
130.000000 -0.000000277858281406873850 -0.000000240992499178034204 0.000000027761835751069588 0.000000216911628735173225 -0.000000158844209750588274 -0.000000198326906977936016
132.000000 -0.000000221422608193852190 -0.000000173369276099568820 0.000000110717397827239821 0.000000305860598944815131 -0.000000097585175653909590 -0.000000153828134774045126
134.000000 -0.000000305034295576773574 -0.000000270978722755483434 0.000000003150724326964990 0.000000198795206665107721 -0.000000184885646184090294 -0.000000219895399196012281
136.000000 -0.000000274530924175741047 -0.000000233494499946225081 0.000000052119074685607786 0.000000252786409721916678 -0.000000149874819602233929 -0.000000195296916156154406
138.000000 -0.000000385475750408198965 -0.000000361823330148171317 -0.000000088894037860649151 0.000000111290449910098402 -0.000000263531313125155659 -0.000000282089484769100928
140.000000 -0.000000396753935290908578 -0.000000373687726967213386 -0.000000097323955893759547 0.000000106116068651330833 -0.000000273854004936680214 -0.000000290986494342135164
142.000000 -0.000000425827008029283776 -0.000000405229209176500039 -0.000000126629726945522975 0.000000079343935310756882 -0.000000300728726391003171 -0.000000313271297147900521
144.000000 -0.000000556185539968196904 -0.000000556849023164059657 -0.000000294822288549909913 -0.000000089929689231880665 -0.000000435510833699124548 -0.000000415653209357186369
146.000000 -0.000000463267659592615507 -0.000000445473940177418598 -0.000000160094380805346042 0.000000052493381092590506 -0.000000333675743300892437 -0.000000341484337564647906
148.000000 -0.000000556890898059726339 -0.000000553599555530603733 -0.000000278278317386840963 -0.000000065470148142245178 -0.000000429721693074296237 -0.000000414849933731619581
150.000000 -0.000000546404216767140816 -0.000000539842749814053258 -0.000000256807041366197749 -0.000000039701252575374572 -0.000000416635207643750951 -0.000000406442197056422143
152.000000 -0.000000475894637166688190 -0.000000455428009849801871 -0.000000154275847892383937 0.000000069317454768602968 -0.000000340535723156595058 -0.000000351013437894055973
154.000000 -0.000000285099655789716714 -0.000000228616875169284046 0.000000113444257802173565 0.000000348456076311017731 -0.000000135561644782725900 -0.000000200104797276188177
156.000000 -0.000000410745926885575528 -0.000000374201601764722031 -0.000000047667140169769296 0.000000186098313761226842 -0.000000265254072807909101 -0.000000298730229769057648
158.000000 -0.000000270879080590526806 -0.000000209307922691858304 0.000000146300039676755809 0.000000389847716594241457 -0.000000116837126094590535 -0.000000188338460620966183
160.000000 -0.000000324781774334581194 -0.000000271103742823625940 0.000000081360429147276163 0.000000326742329528504094 -0.000000171010475597465909 -0.000000230527644782529896
162.000000 -0.000000310262675366862982 -0.000000253208685813190192 0.000000106958536219551757 0.000000356745124056220127 -0.000000154220589622373876 -0.000000218970222497043717
164.000000 -0.000000330731305818771236 -0.000000276521428528228787 0.000000084808569049420085 0.000000337596700538219239 -0.000000175199573486508031 -0.000000235698726718083309
166.000000 -0.000000580046944503818891 -0.000000567099653533984871 -0.000000242951759057603339 0.000000003328289912696175 -0.000000435687416646344481 -0.000000432294070767550243
168.000000 -0.000000447759197756454929 -0.000000408192992686443870 -0.000000052314784660476938 0.000000202825551095753692 -0.000000290962936860097228 -0.000000326726805960433366
170.000000 -0.000000457710775562767889 -0.000000417884721730218534 -0.000000057380443082463164 0.000000201447533541866370 -0.000000298057449580692881 -0.000000333678914158491232
172.000000 -0.000000572813186953988349 -0.000000550856566862188889 -0.000000203397175871404525 0.000000054880321770076436 -0.000000415693589837359442 -0.000000423614209807565753
174.000000 -0.000000341454653449649790 -0.000000277212158955238943 0.000000116539282290390674 0.000000387398736266892255 -0.000000170588915505837835 -0.000000241952942729611679
176.000000 -0.000000537448126724209481 -0.000000505145355382188074 -0.000000138804765698309551 0.000000127882762111333684 -0.000000373661267018757878 -0.000000395743319825766641
178.000000 -0.000000761160891085123235 -0.000000766587536188299970 -0.000000434065389433545368 -0.000000172918849002303979 -0.000000607790381630000737 -0.000000572012392552342290
180.000000 -0.000000978053722336708357 -0.000001019888293049595008 -0.000000718754858798652272 -0.000000462206441516448602 -0.000000832423690907957410 -0.000000741765680299892071
182.000000 -0.000001076574478133344535 -0.000001135101024694897415 -0.000000847149984949561263 -0.000000590940794823935727 -0.000000935484127054999224 -0.000000819308970917568628
184.000000 -0.000001038438856776496496 -0.000001089917177523090158 -0.000000791200247237114049 -0.000000530009838484792016 -0.000000894938879488980052 -0.000000789643613625020052
186.000000 -0.000000909053115314666362 -0.000000935797920875662211 -0.000000608160985571081035 -0.000000338299710898877358 -0.000000755538825988687800 -0.000000687376560739573338
188.000000 -0.000000874328593987032035 -0.000000893390615333568605 -0.000000554549634529695013 -0.000000280320567044350119 -0.000000717393019142111363 -0.000000660014772516488760
190.000000 -0.000000871086325996022929 -0.000000888302752899516019 -0.000000543848123586052948 -0.000000266052162484922853 -0.000000712294125739879589 -0.000000657601975505499128
192.000000 -0.000000688279580456812999 -0.000000673703321274346541 -0.000000293816417887816200 -0.000000005293220505386904 -0.000000519200517275286991 -0.000000513597947010621380
194.000000 -0.000000472498122685930820 -0.000000418882054373726754 0.000000003387946125393332 0.000000303424354729905885 -0.000000290414427246004927 -0.000000343844323246557155
196.000000 -0.000000506155005551993227 -0.000000457592799301723881 -0.000000036315656157849846 0.000000265907008862077128 -0.000000323547367600532635 -0.000000369853981513364205
198.000000 -0.000000699665817112314171 -0.000000682892708671102800 -0.000000289723611264086608 0.000000007898202802662217 -0.000000525269425575655367 -0.000000522199474374931566
200.000000 -0.000000684806216820569084 -0.000000664700408361144528 -0.000000265321977958704468 0.000000035868623287262321 -0.000000509294311967549057 -0.000000510744391371815091
202.000000 -0.000000912915096387789891 -0.000000930529892120904994 -0.000000564705547866545912 -0.000000269392932538516496 -0.000000745728926852717296 -0.000000689390541577344550
204.000000 -0.000000678109979055616612 -0.000000653734691319045588 -0.000000242838814811483406 0.000000064636434999721300 -0.000000497343278209685505 -0.000000504669915639703357
206.000000 -0.000000410821148337242784 -0.000000338598733543983972 0.000000123432562025821154 0.000000444398481877036262 -0.000000214084074851130896 -0.000000293933893431819910
208.000000 -0.000000425828957111710911 -0.000000354319903774055955 0.000000110508770052019377 0.000000433624559343876803 -0.000000226571955712451212 -0.000000304795033912485682
210.000000 -0.000000583285286409147384 -0.000000536853663983577986 -0.000000093882610874910756 0.000000225511992991010243 -0.000000389782910910970496 -0.000000428746586887406642
212.000000 -0.000000694607555967675925 -0.000000666468916864553185 -0.000000239161534335613497 0.000000078094156476528978 -0.000000506028741402322834 -0.000000516735228630146622
214.000000 -0.000000894095366675662265 -0.000000900178130417560294 -0.000000503842211201386918 -0.000000191562947282829859 -0.000000714947781746443580 -0.000000673683059442757635
216.000000 -0.000000856011709563603606 -0.000000854641540447660575 -0.000000448013879586782857 -0.000000131829344815612537 -0.000000673489759210863350 -0.000000643371220062116475
218.000000 -0.000001192919678416915189 -0.000001249024030289966646 -0.000000895844483766132476 -0.000000590466498285852889 -0.000001024712950240559980 -0.000000907828901115270418
220.000000 -0.000001088449552938498740 -0.000001123648777022490568 -0.000000746659964425300238 -0.000000435206456055961931 -0.000000911415023980399598 -0.000000824979325999738594
222.000000 -0.000000490030184268511648 -0.000000419430653632880761 0.000000065886311001671118 0.000000403338139450562060 -0.000000279268612546400658 -0.000000353573208119509942
224.000000 -0.000000231002689801712930 -0.000000115833142065240583 0.000000415971791307482565 0.000000766710803363751962 -0.000000007478247207204442 -0.000000149987658735559265
226.000000 0.000000043447263895290558 0.000000207272233966139706 0.000000789962535014646257 0.000001153581453136461680 0.000000282374518490573568 0.000000065630386219720370
228.000000 -0.000000122929896796038887 0.000000012474191535343783 0.000000568220990794706038 0.000000926496807773456492 0.000000106955263607162595 -0.000000065781141440149230
230.000000 -0.000000254897851272497936 -0.000000143792576174413183 0.000000389024067801201379 0.000000743901123564578411 -0.000000034571424062128651 -0.000000170967458483746676
232.000000 -0.000000543221798141921138 -0.000000482627685265777122 0.000000002543999365868910 0.000000348611246391719032 -0.000000336005191124149382 -0.000000396578092363841608
234.000000 0.000000187739036728208078 0.000000380408967411471097 0.000000998535907469582965 0.000001373304942635392847 0.000000434413825995288530 0.000000176673722705467942
236.000000 0.000000184776358929580664 0.000000379881865144168899 0.000001001919210593948298 0.000001377544983349693909 0.000000433903364012117138 0.000000174609150675965393
238.000000 -0.000000478284144166595409 -0.000000397269492710401365 0.000000115205892049317406 0.000000467924302216100510 -0.000000257723928178889457 -0.000000344173849790481511
240.000000 -0.000000899333487773948235 -0.000000890897384996496096 -0.000000449000696158006843 -0.000000110549714549819517 -0.000000699702661152934197 -0.000000675107405351936338
242.000000 -0.000000292960478681555199 -0.000000176789569341238163 0.000000376254351283729784 0.000000740922544089763162 -0.000000056350114722969165 -0.000000195880075755471371
244.000000 -0.000000369903534076190778 -0.000000262339051878902672 0.000000283856944210345525 0.000000645421077432589475 -0.000000134640160808156244 -0.000000257536008006365969
246.000000 -0.000000164294556513191965 -0.000000023650908416663913 0.000000556245694561619391 0.000000928570248129481224 0.000000079236597896954254 -0.000000095673291390179714
248.000000 0.000000078008295756019010 0.000000264535776795783737 0.000000892888877636958770 0.000001275789162828611246 0.000000339259711805266486 0.000000096095973139004284
250.000000 -0.000000308556384431913234 -0.000000191623066498552842 0.000000369276708731384950 0.000000739478235937172504 -0.000000068343288938291249 -0.000000207563574957232101
252.000000 -0.000000121881108666035797 0.000000028063425576535604 0.000000623060706298428119 0.000001001872879075804445 0.000000128136974834526284 -0.000000061306508820108506
254.000000 -0.000000242405202090051696 -0.000000114432105228661691 0.000000461162059331630220 0.000000837120695329850830 0.000000002165873480439042 -0.000000155833353956674004
256.000000 0.000000072890917236885288 0.000000254233278515482547 0.000000883060090534041174 0.000001272615056514951015 0.000000331240919563285637 0.000000091778459526557436
258.000000 0.000000355672686190513973 0.000000586995350379920451 0.000001265607694410146444 0.000001666617852741819617 0.000000626777274439572634 0.000000312971788825986194
260.000000 -0.000000395495303802964440 -0.000000297458678101978677 0.000000251446869097006147 0.000000625785613330697771 -0.000000162021123711788217 -0.000000276643516976938754
262.000000 -0.000000139225065952197330 0.000000005141617422887835 0.000000601477025946501050 0.000000986691769496021767 0.000000108686856214954164 -0.000000075044193154501462
264.000000 -0.000001298854953333132692 -0.000001358128496908169664 -0.000000964041183961815228 -0.000000622874604313587469 -0.000001114115200180139270 -0.000000988733979365058357
266.000000 -0.000000968794147094565501 -0.000000967977450340475088 -0.000000512049123956810354 -0.000000157070223409300354 -0.000000763369893939963388 -0.000000728291266621119048
268.000000 -0.000000964594360893593207 -0.000000963159663538216433 -0.000000505643698214266819 -0.000000149455958551803655 -0.000000760467871187059483 -0.000000726422863991350605
270.000000 -0.000000970670623696434016 -0.000000970304353129863982 -0.000000512738781348125190 -0.000000155510929666722982 -0.000000766748411585761995 -0.000000731316691284212245
272.000000 -0.000001170173826833414733 -0.000001207162809332548884 -0.000000785074183493229464 -0.000000433729029882159117 -0.000000978781877519644403 -0.000000888676219642787029
274.000000 -0.000000850722964468452884 -0.000000831147626953947609 -0.000000351875238687051117 0.000000012568852638402183 -0.000000642682313906640358 -0.000000637987353723096824
276.000000 -0.000001021508651357471220 -0.000001029790394893830417 -0.000000575251904848914887 -0.000000215935353929917812 -0.000000817163035428021780 -0.000000770386005640730574
278.000000 -0.000001292664637005336170 -0.000001346617888416329650 -0.000000935415309776296297 -0.000000586017952053691815 -0.000001098937472246136294 -0.000000982505730825928430
280.000000 -0.000000709934437157209163 -0.000000659742659000607284 -0.000000142907010452665081 0.000000231026510097007339 -0.000000482772545031755790 -0.000000523403344614097612
282.000000 -0.000000428783186537656408 -0.000000328471064158561998 0.000000239380210956192238 0.000000625186687470220230 -0.000000186536623948096743 -0.000000302546975721179685
284.000000 -0.000000819343969832391005 -0.000000787153276827521837 -0.000000286952209901557072 0.000000084611900713228434 -0.000000599974109097279796 -0.000000610989247092817250
286.000000 -0.000001008519194040450609 -0.000001007208643617002282 -0.000000536837335907312367 -0.000000172479526808134012 -0.000000797785734162271960 -0.000000760145778440290133
288.000000 -0.000001021629691390064086 -0.000001020540037735573450 -0.000000547408989701404202 -0.000000181996041683367071 -0.000000806132940403682513 -0.000000768371988544666381
290.000000 -0.000001226613699853864554 -0.000001262071503268663628 -0.000000824126461281691641 -0.000000465328925596944263 -0.000001023093403859261874 -0.000000930981123984112511
292.000000 -0.000001559039489053724351 -0.000001653287806468302003 -0.000001273530331806565927 -0.000000926801560858311411 -0.000001374946192042809909 -0.000001193559264312507438
294.000000 -0.000001273488648562871680 -0.000001317008233960942317 -0.000000884032525672339029 -0.000000524675758105950350 -0.000001071114260315812484 -0.000000967460182011109083
296.000000 -0.000001237843167831111718 -0.000001274636994052649224 -0.000000833752636602924713 -0.000000471588184369270399 -0.000001031673846395264961 -0.000000938118710210462982
298.000000 -0.000001389205142210263849 -0.000001450392609209856748 -0.000001032066351040611472 -0.000000674857909663344411 -0.000001188129625986005962 -0.000001056528693732768383
300.000000 -0.000001388673567162528340 -0.000001446742078727880416 -0.000001023823864399854403 -0.000000665907106345532370 -0.000001185319967358830700 -0.000001056329398966839057
302.000000 -0.000001559470637000330299 -0.000001645939730665790667 -0.000001248670286143070643 -0.000000895598299886241808 -0.000001360800191009334211 -0.000001189286530765377320
304.000000 -0.000001516785213466080797 -0.000001596438732162894150 -0.000001192112170776530248 -0.000000836691760757634379 -0.000001317607337174146936 -0.000001156733728690946831
306.000000 -0.000001825438732599250425 -0.000001959764755814212125 -0.000001608391732293686653 -0.000001263613077595079148 -0.000001642527637800996001 -0.000001399548031473125671
308.000000 -0.000001607827510828656076 -0.000001705492548958777649 -0.000001317500113713180326 -0.000000962820227612199963 -0.000001416853326373299311 -0.000001229681425341184360
310.000000 -0.000001590746300901773827 -0.000001685938888612489588 -0.000001293464371421257665 -0.000000936354969672869701 -0.000001398419183571001055 -0.000001215939324788441565
312.000000 -0.000002258034082307143029 -0.000002474321029729386970 -0.000002201839299016890022 -0.000001868644953449758722 -0.000002104015181086215254 -0.000001740501767637033844
314.000000 -0.000001522590482238731821 -0.000001600922080948538245 -0.000001186186035132981869 -0.000000824603067959645257 -0.000001317156602273731382 -0.000001159650164703228508
316.000000 -0.000000233591562675134113 -0.000000079661704367573680 0.000000568894788865500818 0.000000981845515044088386 0.000000046909146917099738 -0.000000144178933317808620
318.000000 -0.000000756373187663659429 -0.000000699288908464241096 -0.000000146291451470734210 0.000000249904421558191249 -0.000000507398267945256970 -0.000000554499097453276290
320.000000 -0.000000039118046888862777 0.000000137021063772219831 0.000000806457345137304981 0.000001231461697629871546 0.000000236471257649755512 0.000000006876497097387961
322.000000 -0.000000654738393472059289 -0.000000584665389862140848 -0.000000019053129730519291 0.000000384074412087198430 -0.000000406702669358670334 -0.000000474967510772460740
324.000000 -0.000000245179640904986776 -0.000000104936443740927671 0.000000532481309200141231 0.000000953681910443116704 0.000000022434606552037423 -0.000000154044106762145727
326.000000 -0.000001800689567853667892 -0.000001933435098130560004 -0.000001565723562467526424 -0.000001203388908812938588 -0.000001613574907860712769 -0.000001377884337090745191
328.000000 -0.000002809233951162216711 -0.000003116914839111808250 -0.000002923470281432462967 -0.000002601868149253318755 -0.000002674817011262160273 -0.000002172827762315723792
330.000000 -0.000001804349493853179966 -0.000001938330933376221558 -0.000001570759507164417807 -0.000001208216219368135763 -0.000001620164781725356667 -0.000001382957214708424630
332.000000 -0.000002225034592730310531 -0.000002434838721591503571 -0.000002142580798910585878 -0.000001795606387347154117 -0.000002068066161284304610 -0.000001716320318292041073
334.000000 -0.000001411811910306809290 -0.000001475739854789088116 -0.000001038533030428167799 -0.000000661783624204991666 -0.000001214367387767994541 -0.000001080454817757128414
336.000000 -0.000001594268284182474260 -0.000001690211541287592008 -0.000001282067233526922692 -0.000000908997426566414300 -0.000001401888487801672142 -0.000001220463734840642034
338.000000 -0.000000556606092439769412 -0.000000468024958438523056 0.000000124771353773422564 0.000000538809543122175002 -0.000000308531352892499669 -0.000000404968224015620104
340.000000 -0.000000107788927616399097 0.000000064754193280460957 0.000000743366310689044706 0.000001174892017362734572 0.000000168851690931734809 -0.000000052411528424692197
342.000000 -0.000000522784163701257135 -0.000000419718441488985356 0.000000189509334556705046 0.000000604506446233718602 -0.000000267109974337832658 -0.000000379414975837481197
344.000000 -0.000001338658047331486298 -0.000001373043115770592077 -0.000000896870437368995670 -0.000000512305619652004673 -0.000001116985818292147244 -0.000001018325361201678168
346.000000 -0.000000513540636114265548 -0.000000398997867717464175 0.000000228572137190448725 0.000000646254948391467932 -0.000000241827564881538310 -0.000000366631429112405021
348.000000 -0.000001503189863355035377 -0.000001561620899619078920 -0.000001102284630476450694 -0.000000718182648363222035 -0.000001275312746850137493 -0.000001139964219592043634
350.000000 -0.000000606779764725847972 -0.000000508983796098010289 0.000000104865950982792408 0.000000525726182913303644 -0.000000338772970332986581 -0.000000438642821999239188
352.000000 -0.000000456726375602850468 -0.000000332081462720457428 0.000000312964807006976731 0.000000743273705780282361 -0.000000172361575972484283 -0.000000315182914956263381
354.000000 -0.000001673356745533096962 -0.000001762156315209968533 -0.000001327612535115598661 -0.000000943028940639244609 -0.000001455683408094287734 -0.000001275015970104302774
356.000000 -0.000002272505681093894887 -0.000002463360230683020625 -0.000002131723314328083320 -0.000001771810636984983445 -0.000002091394402021482260 -0.000001752174722446454684
358.000000 -0.000001246324391467586009 -0.000001253811850081606717 -0.000000735526646323030816 -0.000000333987544088017337 -0.000001005031322385830309 -0.000000942959103062531780
360.000000 -0.000001372685819591639086 -0.000001406355695422234597 -0.000000914670594383586872 -0.000000515646315764642014 -0.000001143500108268379964 -0.000001043420069778035649
362.000000 -0.000000715951552947827453 -0.000000628539471069775638 -0.000000011186342706247583 0.000000414225616602320473 -0.000000441770386569664480 -0.000000524347975696085820
364.000000 -0.000001622439336332941429 -0.000001694740838907804983 -0.000001236243552600590119 -0.000000844366980886059024 -0.000001398676009896295487 -0.000001238682097211706629
366.000000 -0.000001477270259681133953 -0.000001529191998174100520 -0.000001049861671486978384 -0.000000649542858562155884 -0.000001251222017208894962 -0.000001124866583998887988
368.000000 -0.000001828284055549293246 -0.000001938180656860066302 -0.000001514558804827348041 -0.000001128484277524346330 -0.000001616492675036725767 -0.000001400316889491318840
370.000000 -0.000001837601824255894413 -0.000001948538049994180695 -0.000001523213987040449320 -0.000001135193353302112594 -0.000001625072027331991996 -0.000001408351218932612080
372.000000 -0.000001085659243447535895 -0.000001061173085544653606 -0.000000494378367359746079 -0.000000074640406651734111 -0.000000822539118171852062 -0.000000812815430040561590
374.000000 -0.000001946058602914587486 -0.000002077032305666359080 -0.000001664733373861845818 -0.000001276643275632240583 -0.000001733712142277525705 -0.000001491111450283850516
376.000000 -0.000001575711134629923954 -0.000001644219363842077706 -0.000001168954337258527166 -0.000000763992615076448016 -0.000001345680415673991620 -0.000001198577865993727527
378.000000 -0.000001453511936439138334 -0.000001500508450574324784 -0.000001001804955332612857 -0.000000588878010642959891 -0.000001215949689658957979 -0.000001101145340528054812
380.000000 -0.000002846774558491853223 -0.000003141855244030241409 -0.000002892391093880642178 -0.000002533792511758096006 -0.000002694883054887655763 -0.000002203693192311296936
382.000000 -0.000002556514900565430333 -0.000002807680634813105125 -0.000002508664849172393737 -0.000002132871607579954955 -0.000002386956172675114076 -0.000001971205765511725555
384.000000 -0.000002591141255146069879 -0.000002840775239881493681 -0.000002538230273591345593 -0.000002164635012826811674 -0.000002421031091778685443 -0.000002001410074811472734
386.000000 -0.000001535274019680105653 -0.000001598490705044881608 -0.000001107149332369438684 -0.000000690216963824737548 -0.000001305339189354870155 -0.000001168921671214806378
388.000000 -0.000000950131525375436050 -0.000000904750710964313268 -0.000000303942710445986978 0.000000135637442761175094 -0.000000686543597895125338 -0.000000711186167789855017
390.000000 -0.000001213522049594763611 -0.000001215721015282194068 -0.000000659211829054722672 -0.000000226703892352072866 -0.000000961274888738361347 -0.000000916044195862107076
392.000000 -0.000000509005722608479269 -0.000000387526814303210121 0.000000291986294817354990 0.000000752710378750224986 -0.000000222606846163872208 -0.000000363184691246245154
394.000000 -0.000000802041120267225329 -0.000000737092878594381233 -0.000000109898365965394800 0.000000344295161513918661 -0.000000532944216182517072 -0.000000593288086710791065
396.000000 -0.000000651496372428943730 -0.000000553238560949009534 0.000000108328234692022044 0.000000567509593915501516 -0.000000372634572960611579 -0.000000477096606098771057
398.000000 -0.000001499237828530222276 -0.000001550933194733609066 -0.000001038539525310811969 -0.000000611476068246115479 -0.000001270132567003438742 -0.000001147108176207132173
400.000000 -0.000002585161417491306586 -0.000002829421834103559700 -0.000002505930272188037636 -0.000002118656761810955588 -0.000002412164052521243326 -0.000002000724913712236355
402.000000 -0.000001514180882700539598 -0.000001575701396860855456 -0.000001068163547401714064 -0.000000635692704225043854 -0.000001290379595475692808 -0.000001158760535600438697
404.000000 -0.000001754425567967007522 -0.000001861016799937983646 -0.000001397623926056586610 -0.000000972580786742502289 -0.000001548548081046298510 -0.000001350159157157870187
406.000000 -0.000001360287028150302693 -0.000001394771015695098494 -0.000000856700006752937656 -0.000000415306154697191816 -0.000001129757777603594417 -0.000001039207559128403140
408.000000 -0.000001772551237050154317 -0.000001876020927127877954 -0.000001403389682093056343 -0.000000976149795510127247 -0.000001557999754534846999 -0.000001362140161494754216
410.000000 -0.000002443175253704917418 -0.000002661528965412217254 -0.000002299113533000504411 -0.000001896111745593828204 -0.000002258691229462070789 -0.000001888033750066133577
412.000000 -0.000001540073221755541144 -0.000001596245371140331555 -0.000001066473094902730334 -0.000000623030833109021973 -0.000001297230253629818754 -0.000001173343781597868201
414.000000 -0.000001703575679441064516 -0.000001788079966838623012 -0.000001283917012037472088 -0.000000843739690261028499 -0.000001467147344206520297 -0.000001301135568833336404
416.000000 -0.000001016837957386634640 -0.000000974243351837115197 -0.000000339351715833240080 0.000000129273400563606476 -0.000000736808977340470862 -0.000000759147349656996854
418.000000 -0.000001628370293669725095 -0.000001691974891876672043 -0.000001162231200722178343 -0.000000714806938883928528 -0.000001384651072850225228 -0.000001242938465088553776
420.000000 -0.000001858345815067578115 -0.000001965445561047534065 -0.000001478422298668258065 -0.000001037244642782222585 -0.000001634624064927597461 -0.000001427131458359976128
422.000000 -0.000002694660932657811249 -0.000002947626545514104952 -0.000002603767515645918487 -0.000002194278815367123794 -0.000002515639806373652786 -0.000002086110089194827202
424.000000 -0.000001830352170394476808 -0.000001919970030210640321 -0.000001406990266557710090 -0.000000962358441231557637 -0.000001588977392018788773 -0.000001400928290815602231
426.000000 -0.000000358849236522337526 -0.000000184545271556872540 0.000000597820570562193229 0.000001103345590318838323 -0.000000025590741255781220 -0.000000237827284705424630
428.000000 -0.000001211915125413947450 -0.000001188884966059089922 -0.000000554529340337405904 -0.000000079143859264807555 -0.000000928326227627006319 -0.000000912875219580939427
430.000000 -0.000002759981908254233400 -0.000003009324411080603936 -0.000002645112083659762630 -0.000002228497645266139615 -0.000002561727453015495967 -0.000002133863619889824493
432.000000 -0.000002500519454475728939 -0.000002705730290609486543 -0.000002297816991538417507 -0.000001869852540838381439 -0.000002298029204395888710 -0.000001935643570408650642
434.000000 -0.000002061446120544307482 -0.000002182769096673288073 -0.000001684661130449553811 -0.000001237823679784319112 -0.000001823455972743299096 -0.000001586259551016893732
436.000000 -0.000001545033763660185530 -0.000001578061093573880682 -0.000000988181077655496551 -0.000000515453217097934793 -0.000001278357908794252738 -0.000001177127604933477633
438.000000 -0.000001746406565054936981 -0.000001814131119206338962 -0.000001254878317375536988 -0.000000785768495042909545 -0.000001485517206731639485 -0.000001333135009092632409
440.000000 -0.000000980866184001347149 -0.000000908479531994726627 -0.000000205393160153269066 0.000000295060118102757750 -0.000000672512184919401073 -0.000000729561158710426962
442.000000 -0.000001473103260664387758 -0.000001487844731157083236 -0.000000869898919946024758 -0.000000385391861626285851 -0.000001196091469826098257 -0.000001120453440620810553
444.000000 -0.000002604063211533162600 -0.000002808735209309057363 -0.000002374639737862343636 -0.000001932828680749932696 -0.000002376743762887538249 -0.000002008955267706962703
446.000000 -0.000001825137588956669168 -0.000001890611521408969025 -0.000001313409201010680682 -0.000000837108035009666686 -0.000001549520730071576159 -0.000001393224109756669944
448.000000 -0.000001884728975835666087 -0.000001958677375688350821 -0.000001386808579082444995 -0.000000911403925819199040 -0.000001610982247846291782 -0.000001441749624542614509
450.000000 -0.000002264371168454413160 -0.000002405140193734726610 -0.000001897408936271529593 -0.000001433710099687106172 -0.000002011514902134822007 -0.000001740897937349640125
452.000000 -0.000002747337039807574065 -0.000002976506375245548229 -0.000002552230186307312782 -0.000002103388773194356249 -0.000002521313641357060534 -0.000002120822800280070386
454.000000 -0.000002590574341505853807 -0.000002790320627564029670 -0.000002333922959324612001 -0.000001876373438345458937 -0.000002356874943878358864 -0.000001999583755019881906
456.000000 -0.000002431672567693663719 -0.000002605879976131035683 -0.000002120914826349267353 -0.000001653086594271759901 -0.000002192099695654577745 -0.000001875198438993413483
458.000000 -0.000003191064479930535821 -0.000003499566189119706490 -0.000003146330800886888998 -0.000002704968824484927133 -0.000002994272132005708991 -0.000002473355383984804068
460.000000 -0.000003748109472910254435 -0.000004153674223193380927 -0.000003890253867819919730 -0.000003466840093931278904 -0.000003575116753279964269 -0.000002909734283020627603
462.000000 -0.000002760255378338586370 -0.000002989217293013085868 -0.000002542926398134732532 -0.000002077640380054621518 -0.000002528060537740026305 -0.000002131976808432175505
464.000000 -0.000005273674994747847650 -0.000005922812638791360610 -0.000005882333211842236067 -0.000005513123350124557035 -0.000005142399263465686502 -0.000004103055532521001278
466.000000 -0.000004737944962279728641 -0.000005292341264344080771 -0.000005155930031686331566 -0.000004761334819119856688 -0.000004585276966420698865 -0.000003685229117230397566
468.000000 -0.000002548910468045808947 -0.000002720181409011764042 -0.000002193950319947787908 -0.000001706065162238410873 -0.000002269142137514068820 -0.000001954033234030205102
470.000000 -0.000002239373030567317575 -0.000002373131155459700268 -0.000001810331767689442457 -0.000001303082420011726995 -0.000001960178877163198496 -0.000001711960218562634417
472.000000 -0.000000211186740235486945 0.000000016586961125312584 0.000000941013566805610970 0.000001528299869662006536 0.000000178390607033227835 -0.000000116145375329303761
474.000000 -0.000001775775627489876849 -0.000001824807319061315930 -0.000001172052106233065013 -0.000000638647098332233717 -0.000001474128085238923345 -0.000001349657596209236505
476.000000 0.000001225454479458117452 0.000001707207849669486720 0.000002897062599761111759 0.000003552423145084919357 0.000001693624178101026476 0.000001012471241104407413
478.000000 0.000000178065155723422233 0.000000474941628031614995 0.000001486371038717709487 0.000002105444408130088102 0.000000594808567210276624 0.000000189753097163883220
480.000000 -0.000002818891941547243540 -0.000003048581629568294818 -0.000002558163968168014570 -0.000002053754390168552430 -0.000002560490997780800202 -0.000002171344816898385815
482.000000 -0.000002959891580195239166 -0.000003209500990575239058 -0.000002739121559869015699 -0.000002241847815296344842 -0.000002714348236916941604 -0.000002288446057463802709
484.000000 0.000000346401831338673845 0.000000681143661534603590 0.000001739482500058314485 0.000002368891485530737946 0.000000771813878431055079 0.000000314716957646282778
486.000000 0.000000666860411315597792 0.000001044821983965703906 0.000002150256859725251924 0.000002801034626474814888 0.000001093049684348494106 0.000000562875895216445353
488.000000 -0.000000070861371887121188 0.000000177129135785689455 0.000001152703445227271746 0.000001775649078570916233 0.000000302785554896431160 -0.000000028002096716876031
490.000000 -0.000001383739457426085171 -0.000001370265669185511981 -0.000000623225262642069789 -0.000000045726492877437757 -0.000001077617613346480634 -0.000001058515382860911591
492.000000 -0.000002523887720189614272 -0.000002713157762263533561 -0.000002163423832562110926 -0.000001623224069801548273 -0.000002277593095202213505 -0.000001954774982633335845
494.000000 -0.000003119021211393786979 -0.000003410788315735428402 -0.000002967594227216491557 -0.000002452507759315627881 -0.000002920730996727362057 -0.000002434058463416733337
496.000000 -0.000003227384047104211365 -0.000003529017139839292366 -0.000003091596447444441256 -0.000002581266350648883856 -0.000003036169823029135130 -0.000002527334299944379417
498.000000 -0.000002172945522013329911 -0.000002267477971602648402 -0.000001622887658990939051 -0.000001076248130098721543 -0.000001915412633076799094 -0.000001700546173951273644
500.000000 -0.000002861454753822461077 -0.000003064319208794062304 -0.000002516764427551847905 -0.000001990855507235622048 -0.000002618376061054367316 -0.000002234619105860058108
502.000000 -0.000005391870186292574550 -0.000006023872934643529374 -0.000005891692245285243840 -0.000005460438352412602085 -0.000005256555178137707684 -0.000004216292232950131641
504.000000 -0.000006342155544236376101 -0.000007130402412945772655 -0.000007142115612724710454 -0.000006740347648572955658 -0.000006236081869904098911 -0.000004956775632915076199
506.000000 -0.000008792866906331845632 -0.000010019068463280268781 -0.000010465558954907643431 -0.000010151527347514109522 -0.000008827037957322427203 -0.000006886734745920134220
508.000000 -0.000008735735772034914506 -0.000009942872397784662366 -0.000010360099829244337071 -0.000010034967249739445945 -0.000008747376880120898157 -0.000006833763596236968674
510.000000 -0.000006143954570655558730 -0.000006890395050298273933 -0.000006833048843463940158 -0.000006396465070294757519 -0.000005994178967567357673 -0.000004784582351911032147
512.000000 -0.000007836477190657598166 -0.000008871435025964665271 -0.000009096488957668911796 -0.000008724111876164883779 -0.000007777294535330375283 -0.000006123134934537157553
514.000000 -0.000007469373373345021806 -0.000008423116378852241133 -0.000008563408337874819120 -0.000008178493456663871923 -0.000007384883328001715975 -0.000005840860936664591387
516.000000 -0.000007873641179058679765 -0.000008892238411101404947 -0.000009089125219483003640 -0.000008716438867049564718 -0.000007807564590286816461 -0.000006161548250817705820
518.000000 -0.000009497641608907847875 -0.000010810205491094673693 -0.000011295804461747148602 -0.000010975954353605747499 -0.000009521048251823139625 -0.000007437396414951503505
520.000000 -0.000006888153772208058384 -0.000007732877346242971286 -0.000007742040144810339149 -0.000007315069784674949879 -0.000006761744396736432145 -0.000005383900792262157269
522.000000 -0.000006049968816834367320 -0.000006750603440194062861 -0.000006612707773430242286 -0.000006148852675334007188 -0.000005884112550142078889 -0.000004726055667919247337
524.000000 -0.000006604852694398843031 -0.000007407930131440573997 -0.000007368621622737243855 -0.000006919054564635768841 -0.000006475554471733406871 -0.000005164238542928549582
526.000000 -0.000007796945652293500996 -0.000008802158934475301193 -0.000008953761612515071224 -0.000008543672421055686328 -0.000007711838151514428114 -0.000006093936906411265888
528.000000 -0.000009989784448336138213 -0.000011376517293090877522 -0.000011908488868926667020 -0.000011586908907259142309 -0.000010033713993132345092 -0.000007831561557737835895
530.000000 -0.000009030148989404616512 -0.000010240885679084646439 -0.000010581685532571116496 -0.000010215903645764134129 -0.000009004692959984921362 -0.000007072896096337202862
532.000000 -0.000005381284314470266023 -0.000005947498020930513375 -0.000005633164673202733719 -0.000005117877115185937122 -0.000005146726554606189898 -0.000004195129943961179700
534.000000 -0.000006521688878987944774 -0.000007283679226689960913 -0.000007157555011979507469 -0.000006681205655005151182 -0.000006344529442328983212 -0.000005093635437808220561
536.000000 -0.000006045144129193904723 -0.000006733195155896372267 -0.000006530195182084092010 -0.000006027036394807708329 -0.000005849217426330279476 -0.000004714209112422935118
538.000000 -0.000006690575417856070814 -0.000007483450170949992224 -0.000007378901416076944301 -0.000006898667831346606305 -0.000006529931267570452091 -0.000005229423280848723649
540.000000 -0.000007964047027077329790 -0.000008990467603018512802 -0.000009110648792592945539 -0.000008668851237959883312 -0.000007874620385472897330 -0.000006231502209315554754
542.000000 -0.000007851440208837836784 -0.000008869703015917725046 -0.000008970400795665645224 -0.000008511876645818883147 -0.000007757003341021709202 -0.000006139725302681051275
544.000000 -0.000009941812849790166294 -0.000011324545474150698334 -0.000011778680071994751053 -0.000011393892579387584230 -0.000009953305995425484870 -0.000007784226879497682398
546.000000 -0.000007618699036879114214 -0.000008583284666761634781 -0.000008613846511324967008 -0.000008135861755028443124 -0.000007500465007571949920 -0.000005959392648632952648
548.000000 -0.000004236548876972258153 -0.000004601514233166285456 -0.000004028987859120184648 -0.000003414928532508387338 -0.000003937110072941306098 -0.000003301237278145238369
550.000000 -0.000002290141252967442949 -0.000002317377280397072736 -0.000001399742238931045941 -0.000000700979713899729023 -0.000001887922406859272705 -0.000001769232572030777081
552.000000 -0.000003182105267713755000 -0.000003352254158072295969 -0.000002568637132251262877 -0.000001903287418367330392 -0.000002811985939740022889 -0.000002469755132562777509
554.000000 -0.000002479312383681567443 -0.000002531898490921773952 -0.000001625346715766074677 -0.000000922956819461804112 -0.000002087068529666165973 -0.000001926329409693774980
556.000000 -0.000003193873525311069912 -0.000003365883136906185554 -0.000002569315966645143291 -0.000001889381920935316146 -0.000002833856452716342632 -0.000002490529016820244609
558.000000 -0.000005168096724926722750 -0.000005687228498892299430 -0.000005232437784562987995 -0.000004625206464826455910 -0.000004922090525910823948 -0.000004051663389772948656
560.000000 -0.000005334551745854505793 -0.000005891851676520016303 -0.000005465000895592038494 -0.000004853962542771588880 -0.000005101616734003500287 -0.000004181760568236871527
562.000000 -0.000003897369690107456405 -0.000004215350549091065773 -0.000003546863638071176919 -0.000002872903129603858124 -0.000003612486335006838326 -0.000003060961110028664612
564.000000 -0.000005495361017488223311 -0.000006088296298664183655 -0.000005683209408731078686 -0.000005065611006231664939 -0.000005282787930417065153 -0.000004316160317257874320
566.000000 -0.000005244821844708447553 -0.000005783747643849954707 -0.000005316372595914966097 -0.000004685206575323016306 -0.000005011750464603980983 -0.000004121176922429006478
568.000000 -0.000005543913293711831478 -0.000006135686450068276096 -0.000005707737802078520076 -0.000005079502345089242292 -0.000005321358827346402838 -0.000004355515847249405937
570.000000 -0.000006369927948246781294 -0.000007104387883288240542 -0.000006804968507068600634 -0.000006196887777852263310 -0.000006178789997602897786 -0.000005002903423961799368
572.000000 -0.000007457389672623758209 -0.000008372240799947283901 -0.000008239239247452817455 -0.000007666223790160928297 -0.000007310217226826306400 -0.000005858192985940150189
574.000000 -0.000007934303426970038155 -0.000008920447090012756846 -0.000008845869331337607964 -0.000008285492604527338548 -0.000007799701288135374138 -0.000006233291219316449512
576.000000 -0.000007313842112919822349 -0.000008178133279204792886 -0.000007973903677743099150 -0.000007383845316692839906 -0.000007137907055609723704 -0.000005746713500922301801
578.000000 -0.000007054577144403154933 -0.000007879150421528821648 -0.000007628781712355720235 -0.000007019854470401004587 -0.000006881950992427160010 -0.000005552012457752682088
580.000000 -0.000006567983270116584905 -0.000007293132146073003263 -0.000006931718860498513904 -0.000006298902757304830745 -0.000006354329653970698251 -0.000005167078828846786362
582.000000 -0.000006160616328894115147 -0.000006807204907300716106 -0.000006353301414987010285 -0.000005693904755341124112 -0.000005909478342001822307 -0.000004841024542927729127
584.000000 -0.000005627512020139505366 -0.000006188434203073364482 -0.000005642334191756584443 -0.000004952130497635165837 -0.000005361586620042085471 -0.000004429836471299026537
586.000000 -0.000005725740012745568526 -0.000006300648487885169434 -0.000005758597237818963385 -0.000005064352732916430582 -0.000005465107838847936141 -0.000004511525242929885268
588.000000 -0.000005001437071073522029 -0.000005448379487363257729 -0.000004764311770046048508 -0.000004034071284826911326 -0.000004700165018891773505 -0.000003945098743480506467
590.000000 -0.000004395971347514712552 -0.000004732214003653014396 -0.000003922308852889237257 -0.000003156204032198338449 -0.000004045312463362442055 -0.000003460702541080349511
592.000000 -0.000004838891340358255005 -0.000005250467139871985137 -0.000004504315786946781767 -0.000003745656867038934619 -0.000004506209625398148497 -0.000003807781129685728480
594.000000 -0.000004292012925032544626 -0.000004597244395138910021 -0.000003734759523317191005 -0.000002948311431768004632 -0.000003923020086806741053 -0.000003378815766180024111
596.000000 -0.000003767388941956903852 -0.000003979923130270011708 -0.000003020020089060750704 -0.000002206428707031877039 -0.000003384643370386837989 -0.000002977306085436758784
598.000000 -0.000003981033291013689999 -0.000004215730853738939832 -0.000003265685811858221207 -0.000002454402347316826637 -0.000003595072735696766324 -0.000003146437283838715819
600.000000 -0.000002303795921361768827 -0.000002242978396545829239 -0.000000984266441649746234 -0.000000098088847585870217 -0.000001821224166270796456 -0.000001826174545390387397
602.000000 -0.000001209933413399280771 -0.000000947015907124868427 0.000000527160110267118450 0.000001464004510275517724 -0.000000657747581112019667 -0.000000966133515342822479
604.000000 -0.000003043254790922508508 -0.000003101850060824376515 -0.000001937375511201220799 -0.000001065428154201658275 -0.000002590546032547747115 -0.000002413632268090812324
606.000000 -0.000004414471546602934734 -0.000004712999435336136752 -0.000003776034409495974766 -0.000002949128730436560454 -0.000004036727694668265495 -0.000003497419909531996275
608.000000 -0.000005992060887237524004 -0.000006572296935685272685 -0.000005904998866041575043 -0.000005129112286379851544 -0.000005702212222237944987 -0.000004742638872553742390
610.000000 -0.000007253534959174022454 -0.000008067872931751598206 -0.000007625822009910742965 -0.000006889397079407797814 -0.000007048926510477481150 -0.000005744252393998623675
612.000000 -0.000008019080233378797994 -0.000008937630429738187455 -0.000008569793760722983184 -0.000007858305083460412083 -0.000007814944489171087364 -0.000006346185973906396565
614.000000 -0.000012236739084223786938 -0.000013872118833053101924 -0.000014196318543260051778 -0.000013640689899126857160 -0.000012226453967671723540 -0.000009664550271827247421
616.000000 -0.000014187677315984221474 -0.000016166906646651449576 -0.000016820193647242831481 -0.000016328567135513976771 -0.000014276250659187660850 -0.000011197143987545209187
618.000000 -0.000014360408181061704342 -0.000016387677367705194299 -0.000017082150537047789750 -0.000016583508904419307382 -0.000014478554744441370140 -0.000011338358158118265904
620.000000 -0.000010452110303373108750 -0.000011795632801924914304 -0.000011793448427966611174 -0.000011123026930850895546 -0.000010344129407394203458 -0.000008246296663487780442
622.000000 -0.000005267195456796120950 -0.000005715991553014552187 -0.000004808500433251110521 -0.000003918952058068383118 -0.000004902322753387882970 -0.000004175540278907848936
624.000000 -0.000006752759840177300904 -0.000007466567227261202543 -0.000006797944252534444513 -0.000005948709284294230141 -0.000006447922111712664701 -0.000005338389630875078494
626.000000 -0.000004893160050301509569 -0.000005272071426116997482 -0.000004255278225189704719 -0.000003332520473537672276 -0.000004478135235751963209 -0.000003877998475878936917
628.000000 -0.000004629685244368764429 -0.000004979085049030698782 -0.000003925447788559700589 -0.000002984133988493447078 -0.000004224353198979471212 -0.000003680207688028874375
630.000000 0.000002284584279845607759 0.000003137022057622379546 0.000005388972371910303164 0.000006605547270120532215 0.000003018355326626390310 0.000001741365310470293566
632.000000 0.000004313520439072285368 0.000005501972812552971122 0.000008099639619322472392 0.000009409717716265533164 0.000005139830307780253971 0.000003333091095777305088
634.000000 -0.000001323311502173651394 -0.000001134053463558154620 0.000000476014522350065089 0.000001577692220080573686 -0.000000800906796602209523 -0.000001102565150205988290
636.000000 -0.000000701896920937592048 -0.000000407159614148411955 0.000001305106306753989354 0.000002429138305098753981 -0.000000184288850798765571 -0.000000640741159723897413
638.000000 -0.000001823219750014042784 -0.000001709968651620603923 -0.000000187539105285915184 0.000000879431933732667516 -0.000001397255667133279110 -0.000001553207797473778587
640.000000 -0.000000270348497938571410 0.000000130137919787401478 0.000001950107663667369771 0.000003083796591150888796 0.000000256270504940910383 -0.000000329079695640498559
642.000000 -0.000000303521773560869623 0.000000108714564848405205 0.000001959962639363604960 0.000003095862747660318028 0.000000252229250938165389 -0.000000344439402860744909
644.000000 0.000001676537274422290037 0.000002457331338866768952 0.000004699825878797965541 0.000005925078696206236471 0.000002390247517145433332 0.000001234707230860597737
646.000000 0.000001562570765020698115 0.000002320235450435270633 0.000004546236453501782928 0.000005780334237023893902 0.000002263736627038833933 0.000001142493471516167055
648.000000 0.000004969869787719966399 0.000006333363963867626897 0.000009182115944110702931 0.000010556944384020751197 0.000005880291348488189777 0.000003832781666174937028
650.000000 0.000003345278331890420340 0.000004432151832853264854 0.000007010913220339279224 0.000008322478533394309395 0.000004161118664159146272 0.000002539352341491853827
652.000000 0.000003100814791066301080 0.000004155921750412753870 0.000006701918852644947336 0.000007996142384370620105 0.000003892832452574102632 0.000002332268897908569290
654.000000 0.000000369010592544497525 0.000000931894991746296128 0.000002987371565311623482 0.000004180119155384042340 0.000000997922361248401855 0.000000174283804794609633
656.000000 -0.000001320124746854469528 -0.000001023343793375102557 0.000000783058573130212506 0.000001904674864764030108 -0.000000738685160158946869 -0.000001148788217968702926
658.000000 0.000002116757320695944269 0.000003002811849219035908 0.000005394356094549765619 0.000006653254566110642027 0.000002860236501967131533 0.000001548866150865429585
660.000000 0.000004189468392479922922 0.000005432827732784140866 0.000008190042217619324740 0.000009537893899525708226 0.000005055529770975776363 0.000003192147970800645666
662.000000 0.000006734891615729294798 0.000008416328655308948144 0.000011600766638574218310 0.000013040453832422655193 0.000007711814583603386112 0.000005181436098613088728
664.000000 0.000003453980465956386656 0.000004569307677028006538 0.000007209691726853021929 0.000008518902307794670939 0.000004294961630491686006 0.000002611324536315838207
666.000000 0.000001338550933221225076 0.000002066477815129017227 0.000004320289395101286213 0.000005544088918336541253 0.000002063161339720859813 0.000000949415767583066549
668.000000 0.000003747692985210924325 0.000004864671125779120766 0.000007486252185288677606 0.000008800579726963996769 0.000004556010598036373067 0.000002839991473609748742
670.000000 0.000004249432376902764378 0.000005443966220453550312 0.000008122765833511418602 0.000009442053716864000725 0.000005041526443667292796 0.000003214261990827004698
672.000000 0.000002923063965652380177 0.000003853211467420310453 0.000006260929313032346055 0.000007526563847598088169 0.000003620408298071234119 0.000002169512540727059947
674.000000 0.000004432074853443432372 0.000005598565806498702411 0.000008237673064235462073 0.000009562583029586702339 0.000005184271219621527745 0.000003353115299443904390
676.000000 0.000002915477029318105209 0.000003806813961395692978 0.000006164834759350743875 0.000007422314651159113404 0.000003590401223913199619 0.000002165778069530329914
678.000000 -0.000000176845249564981639 0.000000175470574811148330 0.000001984282277338117109 0.000003100915613335111669 0.000000325606581757936146 -0.000000280718305368231832
680.000000 0.000006762419992675963987 0.000008315230524992460671 0.000011308559547017992179 0.000012687663914158821908 0.000007618765429277221672 0.000005180609343525450654
682.000000 0.000010244016639107931895 0.000012393639720260268131 0.000015969629349966366348 0.000017473305927525191835 0.000011275069453079309277 0.000007923235006459766034
684.000000 0.000008836585289025573322 0.000010716824010759299916 0.000014005785054513149508 0.000015447084449833109107 0.000009761272797497045218 0.000006805696049101591731
686.000000 0.000005285855315534129108 0.000006524357016889770511 0.000009154891967639628867 0.000010443446387540753097 0.000006000850634980342249 0.000004006511776110953731
688.000000 0.000004302769159888501300 0.000005333763445311087177 0.000007727984634979008635 0.000008965432634054857418 0.000004913251928316415231 0.000003219835419666192171
690.000000 0.000008037075558153627372 0.000009702039053222345858 0.000012708442674643073933 0.000014079168092829432135 0.000008823445511787802165 0.000006159031343312565861
692.000000 0.000009188738801038302237 0.000011015140430118753296 0.000014159560141318812261 0.000015565942585322586688 0.000009982616246798573978 0.000007054371622086675543
694.000000 0.000010140446605620655670 0.000012131767330821762894 0.000015418091763755198170 0.000016839270559373380068 0.000010986075073896619359 0.000007808491820744319450
696.000000 0.000009181063348261085723 0.000010989347641463766941 0.000014069385921462535460 0.000015439541801168907325 0.000009955714936357684439 0.000007051876090408298326
698.000000 0.000007520255089759650330 0.000009011696135566484310 0.000011762346090197467233 0.000013056434065016640233 0.000008194818658112316997 0.000005753527496820422408
700.000000 0.000012280478901990881169 0.000014624258698013612451 0.000018224685915434016314 0.000019694459333565505284 0.000013262574140808998288 0.000009529199762863389101
702.000000 0.000012349522774946909050 0.000014702312754250177249 0.000018300096032594187186 0.000019765716948944397251 0.000013346428560790812059 0.000009592830252088541121
704.000000 0.000011234766386141613984 0.000013394840776772115170 0.000016782158619714615381 0.000018187690206803068332 0.000012176745727731015892 0.000008720849987439520910
706.000000 0.000007509491455012320812 0.000009024494710814485950 0.000011749577765532530292 0.000012990162555646070526 0.000008255422617912141795 0.000005791235967635217380
708.000000 0.000009131110698051876713 0.000010925570880085755610 0.000013906698105475406971 0.000015195438082858694998 0.000009957765102339969818 0.000007072331156875991282
710.000000 0.000006581282862271689074 0.000007926255811086492794 0.000010439836930147475535 0.000011616646829225472782 0.000007263114008548555437 0.000005065084129620194486
712.000000 0.000010876538567581000015 0.000012956700981847475980 0.000016178331795391610436 0.000017508327379108433816 0.000011764252116421697585 0.000008449325324933706124
714.000000 0.000010661361679341136287 0.000012710149500908362436 0.000015875914665243491536 0.000017177212129952867069 0.000011533314393141855342 0.000008282458147322981087
716.000000 0.000011921200121493796714 0.000014214479146347061135 0.000017617977934319641780 0.000018954837307200077755 0.000012900536205186804143 0.000009291288895201592506
718.000000 0.000003262983916279541232 0.000004025487730714457045 0.000005895284160601407205 0.000006887359949426443601 0.000003804992204485123809 0.000002499015366000482139
720.000000 0.000004480424698849762018 0.000005450359670117059077 0.000007508976472337607649 0.000008533040645184140972 0.000005079453247617244501 0.000003453333516424278872
722.000000 0.000008177486588708192497 0.000009784752355970681935 0.000012456175020357865358 0.000013610522643576717248 0.000008940923680190835412 0.000006348813401933703800
724.000000 0.000008390406416517411496 0.000010033963053930951574 0.000012726055529298513838 0.000013876019388286041573 0.000009169081495237331342 0.000006521526009253439835
726.000000 0.000009209474299008906263 0.000010977955928379722303 0.000013768562972167785921 0.000014940601580202713574 0.000009993542956353902734 0.000007153760983694177846
728.000000 0.000013003756082879687389 0.000015443975391813861498 0.000018897701631049750498 0.000020198620016074125350 0.000014009332258448160664 0.000010149796649426602872
730.000000 0.000011151639795060770937 0.000013278849852338940894 0.000016420224642461735614 0.000017641779719308497054 0.000012106578068089766763 0.000008721745107284025508
732.000000 0.000008374099186686436574 0.000010004648763078175915 0.000012629894842103570648 0.000013739713560333332017 0.000009167414771549226327 0.000006539466265351453183
734.000000 0.000002898074655726006664 0.000003569645859021226757 0.000005231776171802072115 0.000006116243140089497702 0.000003427896965198925832 0.000002247323593711889257
736.000000 0.000002481905364367019679 0.000003088391156622580698 0.000004670569683463518499 0.000005528531961424888548 0.000002994535202977624978 0.000001922959854569472435
738.000000 0.000005211258412397790279 0.000006306041398782918365 0.000008367587868953555574 0.000009318966004097571396 0.000005880651007287743154 0.000004075002162079046764
740.000000 0.000004994611099949627409 0.000006038593895841244818 0.000008028022311817642793 0.000008960989451822606430 0.000005623974204617663926 0.000003897809456623697225
742.000000 0.000003479112211526712407 0.000004235557204905704298 0.000005911240161262167430 0.000006774466612754799223 0.000003978496908207271832 0.000002683703778645544743
744.000000 0.000005452449427442547957 0.000006584487682062908518 0.000008618005679053323547 0.000009533162841375209169 0.000006071751031105032898 0.000004237117768681908668
746.000000 0.000004337560560262781659 0.000005295138272343325586 0.000007152152141998050274 0.000008015610664739680522 0.000004943280499603604415 0.000003379040322879254198
748.000000 -0.000000362231105170192762 -0.000000241289919734416670 0.000000761837452592720483 0.000001433201443625226930 -0.000000026161533652686290 -0.000000320748766040621669
750.000000 -0.000001060842934670803472 -0.000001095127573698327496 -0.000000258978307156727360 0.000000382874208191366347 -0.000000791128355290275841 -0.000000876224594229956352
752.000000 -0.000003095296312779030600 -0.000003461995275992549360 -0.000002969473944096095081 -0.000002431525245098568296 -0.000002917503836219000326 -0.000002478202628174950473
754.000000 -0.000005217879709155630900 -0.000005958279433639722926 -0.000005843804088262164602 -0.000005390638839158926746 -0.000005133479796760533137 -0.000004131852331599605487
756.000000 -0.000002341861713192811275 -0.000002566755761376845029 -0.000001948910781460351528 -0.000001397087652123692888 -0.000002083162217309370601 -0.000001859320009071539961
758.000000 0.000002412454106921178345 0.000003012257497409727864 0.000004442125653701881134 0.000005171401731278228913 0.000002918153617211831564 0.000001887210537868926537
760.000000 0.000003101792856121886368 0.000003794810736352610129 0.000005290367903319413928 0.000006034803515371055864 0.000003588974188314326549 0.000002410008038953629022
762.000000 0.000002575721734083589475 0.000003168197764773823833 0.000004551529637518258168 0.000005263982747776124547 0.000003031732464229502884 0.000002002845384806003097
764.000000 0.000002018728457143631840 0.000002523500029178347086 0.000003811897559477044317 0.000004488505789276825640 0.000002446365576652021876 0.000001558384291559271354
766.000000 -0.000001069072464330973169 -0.000001139968358760602641 -0.000000454377885972185639 0.000000099878973191317583 -0.000000864491913488638310 -0.000000884339179024026595
768.000000 -0.000000694933122679115639 -0.000000697929532533145407 0.000000052741626051283355 0.000000616954996146384651 -0.000000435791052259067321 -0.000000567811195435441156
770.000000 0.000002749212216356792436 0.000003353276745753079595 0.000004696409990519290140 0.000005381300750915675663 0.000003180813595886887519 0.000002136755043940504405
772.000000 0.000001437966010453731393 0.000001810645502066889523 0.000002919221445049335551 0.000003551284426014955884 0.000001805537986891935070 0.000001111646682133364927
774.000000 0.000001753258901108991013 0.000002153874030888113897 0.000003258479895319609495 0.000003890318210773580403 0.000002099079298558268425 0.000001356567880837335071
776.000000 0.000005086156822446983492 0.000006068558621498032867 0.000007744166314182680333 0.000008501687562405661701 0.000005612539717968546622 0.000003988634755776947952
778.000000 0.000004158594398628918247 0.000004927123370736712497 0.000006388532547446717891 0.000007123564125534413480 0.000004590793116710321158 0.000003257091328050542460
780.000000 -0.000000655470768895824545 -0.000000715246844589988665 -0.000000083377801141562459 0.000000455989025079641220 -0.000000443035914194388585 -0.000000524334561014089876
782.000000 -0.000014593364217764752180 -0.000017072208126816862308 -0.000018835480831835182047 -0.000018846220623830401488 -0.000015098216469597912988 -0.000011508043797823019698
784.000000 -0.000005733672583709882235 -0.000006548796137976053588 -0.000006647250879491643421 -0.000006360488008607417531 -0.000005644971649558487067 -0.000004512464573245324161
786.000000 -0.000007356338770641076898 -0.000008365911280393955942 -0.000008654150500821292132 -0.000008458311487607031914 -0.000007248863123686519694 -0.000005762511833332107570
788.000000 -0.000007559852516793008705 -0.000008582384730512217412 -0.000008876190276893993847 -0.000008704613712713041052 -0.000007428023473256660079 -0.000005919416953628961357
790.000000 -0.000012381496119203821497 -0.000014219074507291643510 -0.000015310090835998652758 -0.000015325977477245083716 -0.000012436788261307161847 -0.000009689606323582543215
792.000000 -0.000004600146866642025327 -0.000005052839366921119535 -0.000004792708168902595620 -0.000004528876803927225563 -0.000004276085737078068331 -0.000003591700187311996749
794.000000 -0.000002940024348028426036 -0.000003145013268751898249 -0.000002662269195439002003 -0.000002319050393049162110 -0.000002589241516417175542 -0.000002288150129309361635
796.000000 -0.000002417989277869832466 -0.000002635088199184690080 -0.000002252682752474178946 -0.000001892713762106592585 -0.000002242949423081888580 -0.000001924081737856568059
798.000000 -0.000004423173653972459354 -0.000004965257838174843137 -0.000004898967105949427816 -0.000004633719639522975060 -0.000004290987921543390899 -0.000003465527950017550587
