0.000000 -0.000000000000000000000000 -0.000000000000000000000000 -0.000000000000000000000000 -0.000000000000000000000000 -0.000000000000000000000000 -0.000000000000000000000000
2.000000 0.000338040712341800139110 0.000014115137841552084338 -0.000275641949837976689593 -0.001011306735135217467481 0.000056605989528722949321 0.000245949217253688156345
4.000000 0.000240406016844684693005 0.000093212212721797101165 0.000017691878716428936053 -0.000227687339390993353887 0.000145316160758987247175 0.000191825394305556725738
6.000000 0.000123015403532586008878 0.000040395451339896882041 0.000019910127436470393992 -0.000078375086761684907479 0.000083838423581188332729 0.000103564660442495573502
8.000000 0.000060999685849307031221 0.000013170719425915844642 0.000010111957490713911214 -0.000030865999395410269931 0.000044704766258659975385 0.000054230657330389942493
10.000000 0.000030783869058136936780 0.000003119570311458328407 0.000004692637906090654382 -0.000013232583557548639031 0.000024027013488810277118 0.000028740720689524411590
12.000000 0.000016151290081736427987 0.000000408780007640714472 0.000002554371194496005936 -0.000005726933353891249269 0.000013417724652122732049 0.000015665119498584255750
14.000000 0.000008972976558764548228 0.000000211538015953459831 0.000001905164043889400367 -0.000002122278406034754831 0.000007941718272194238972 0.000008903673125192962371
16.000000 0.000005348569131346452424 0.000000574473285018700833 0.000001741251586904950612 -0.000000288288151190347903 0.000005033237995944031154 0.000005337526652666772315
18.000000 0.000003334106160534581428 0.000000766204388870769564 0.000001531068614711836443 0.000000492010615675441626 0.000003305576451755675336 0.000003314124349589472548
20.000000 0.000002185934366643780240 0.000000827680542265276073 0.000001330402677022373182 0.000000804995547090275251 0.000002262169147613736902 0.000002145196874474084031
22.000000 0.000001417612225765011542 0.000000701814611134292898 0.000001029046775172258729 0.000000773166435296688079 0.000001517403816125408463 0.000001379288519761696534
24.000000 0.000000903157677927589684 0.000000528079818198178846 0.000000741860373992741861 0.000000629809770457856525 0.000000996677797370230853 0.000000875812356409308530
26.000000 0.000000529312904992518445 0.000000328651324688524184 0.000000465872612363088218 0.000000430252875449685799 0.000000606581152526361486 0.000000520963904941612965
28.000000 0.000000329360154600390514 0.000000230035770901792193 0.000000326084565570488874 0.000000334886933866359905 0.000000393748447634535694 0.000000326223827782474615
30.000000 0.000000196618712502354022 0.000000151709593767007927 0.000000222286899725797401 0.000000256419340817476901 0.000000250278557881999786 0.000000198527836015619238
32.000000 0.000000114285594905758368 0.000000100179118396208096 0.000000156251868410036380 0.000000206012351395986402 0.000000160618553045527025 0.000000119365154112929913
34.000000 0.000000065070031183519634 0.000000069327709427245219 0.000000117836698309818184 0.000000178131173359712275 0.000000107077986339853802 0.000000071807644445766966
36.000000 0.000000010404858511402768 0.000000020819834605673113 0.000000062138288405007212 0.000000129074826770334180 0.000000048697939258104499 0.000000023393714952089255
38.000000 -0.000000054250178362817282 -0.000000045876361507308016 -0.000000012485775330360036 0.000000058516585151237512 -0.000000019481285566897244 -0.000000030839890219260297
40.000000 -0.000000055746079877944975 -0.000000040558999934338098 -0.000000005601513388392094 0.000000071408106298390703 -0.000000020370177780075112 -0.000000033921675454986404
42.000000 -0.000000079385775394396922 -0.000000063571330091043786 -0.000000029889542559187929 0.000000051359970476663121 -0.000000044049953508468428 -0.000000053654886871039432
44.000000 -0.000000099141504210355182 -0.000000083498712778637829 -0.000000050510089680489626 0.000000034906344974253093 -0.000000063457709377088018 -0.000000069730979020069156
46.000000 -0.000000070744576994201017 -0.000000046132814548945318 -0.000000006724531488977608 0.000000084877844908945302 -0.000000031796160490623361 -0.000000047625872205702187
48.000000 -0.000000113690648155320129 -0.000000095014699423940878 -0.000000059534360850423605 0.000000034819560618328727 -0.000000075339998502000526 -0.000000081493265365295474
50.000000 -0.000000083750410471636439 -0.000000056757834654469362 -0.000000014661552045645732 0.000000085818878462673036 -0.000000042049764294950809 -0.000000057867505485783960
52.000000 -0.000000240061022363676979 -0.000000241644021159151204 -0.000000219608684771033641 -0.000000121730527792171601 -0.000000204583516338779951 -0.000000180722129936654843
54.000000 -0.000000246850804917933015 -0.000000247868315737390763 -0.000000224616093877451566 -0.000000122516495623774709 -0.000000210238398359393241 -0.000000185997798106486630
56.000000 -0.000000278169147173997069 -0.000000283392800356573280 -0.000000262337942109477954 -0.000000157037805185870250 -0.000000241303105610285343 -0.000000210355063915211870
58.000000 -0.000000241978317419951295 -0.000000237654465629364893 -0.000000208899287837885050 -0.000000097270088273913103 -0.000000201085124631207818 -0.000000181671458549608954
60.000000 -0.000000241052083193460304 -0.000000234700201023798627 -0.000000203586131180799930 -0.000000087354884236747012 -0.000000198430762594273891 -0.000000180742655611555947
62.000000 -0.000000140811902795027446 -0.000000112174257229639673 -0.000000064105903917241997 0.000000061492257596881723 -0.000000090600054943745781 -0.000000101480732258092859
64.000000 -0.000000210108652751474952 -0.000000192995189967363016 -0.000000152489199519569524 -0.000000025495504872619370 -0.000000161470864700054374 -0.000000155717070884700694
66.000000 -0.000000128909933414034657 -0.000000093289615539873194 -0.000000038527112388891614 0.000000097048643495022201 -0.000000073575904682796467 -0.000000091344840423950277
68.000000 -0.000000065190240469648615 -0.000000014689233375237559 0.000000051745863960151635 0.000000195065758612719603 -0.000000004327459073619483 -0.000000040876445073783089
70.000000 -0.000000101678570448839498 -0.000000056579162651264600 0.000000006932187491611881 0.000000153300035985620770 -0.000000040933523586490408 -0.000000069317458783062404
72.000000 -0.000000142279353029960862 -0.000000103019163683547621 -0.000000042877448670567977 0.000000106319768348221049 -0.000000081498901104944066 -0.000000100885168782709206
74.000000 -0.000000163412371905894673 -0.000000126428192870892364 -0.000000066930670789985331 0.000000086127742066410142 -0.000000101631718331977731 -0.000000117128324218163287
76.000000 -0.000000135539472638823671 -0.000000091199087153069646 -0.000000025433689238057787 0.000000133583684764012209 -0.000000070745317823404369 -0.000000095045738694840058
78.000000 -0.000000114453392873108822 -0.000000063839443772532071 0.000000007469113896872128 0.000000172371956857116983 -0.000000046416172969285582 -0.000000078139807581309763
80.000000 -0.000000119959554346831557 -0.000000068380509987013600 0.000000004534549699492628 0.000000173925025518549284 -0.000000050351499451454018 -0.000000082300140105280326
82.000000 -0.000000073842710817554932 -0.000000010660958186570601 0.000000071514727100616772 0.000000247953993008244780 0.000000000607361553603647 -0.000000045629367325769440
84.000000 -0.000000121645852853647582 -0.000000065955089578123706 0.000000011768726251514095 0.000000190871763527298131 -0.000000047861732266996037 -0.000000083044673550992595
86.000000 -0.000000122041151744137680 -0.000000064434912390863849 0.000000015666855511422030 0.000000199712554612490907 -0.000000046201126240581708 -0.000000082967157531123531
88.000000 -0.000000190207524660364593 -0.000000144137395489758360 -0.000000071332839448887485 0.000000114614013365974922 -0.000000115917434962493310 -0.000000136268579352406809
90.000000 -0.000000124806127009325194 -0.000000063272224265003606 0.000000021594827715762769 0.000000215542705327086168 -0.000000044766202601471257 -0.000000084451365947674074
92.000000 -0.000000100033239886143396 -0.000000031421348723192938 0.000000059564542057109778 0.000000259728045533428487 -0.000000016603083395135549 -0.000000064708036303724890
94.000000 -0.000000187956256952451380 -0.000000134738092284009738 -0.000000053874103228240346 0.000000147269288049926589 -0.000000107168443976464005 -0.000000133612883288563630
96.000000 -0.000000188172065761328880 -0.000000132337423180713475 -0.000000048710759187177603 0.000000157574994307941963 -0.000000104825509048174014 -0.000000133385818955236485
98.000000 -0.000000202419143699953746 -0.000000147077956286216497 -0.000000062818875040984878 0.000000147991819308848010 -0.000000117496415862320071 -0.000000144220375147740401
100.000000 -0.000000177413871687027826 -0.000000115089768081399362 -0.000000024721427484513656 0.000000192409212180147881 -0.000000089232287523420618 -0.000000124265897435903781
102.000000 -0.000000285718392411720412 -0.000000242065064247907894 -0.000000164232662340702728 0.000000053373225589986115 -0.000000200148228591955043 -0.000000208921994168397589
104.000000 -0.000000234775899576360037 -0.000000179035077334679079 -0.000000091338150488726677 0.000000134042143471528306 -0.000000144231258571100291 -0.000000168268636910204783
106.000000 -0.000000307096459168944913 -0.000000263389634749008022 -0.000000183346163408193266 0.000000044067105574124243 -0.000000218149453382373310 -0.000000224985010695098830
108.000000 -0.000000103579176243653243 -0.000000016918874616230386 0.000000095094132271403776 0.000000337194067156126172 -0.000000001515041185029461 -0.000000064463377240025993
110.000000 -0.000000163323507082497249 -0.000000086640422547573921 0.000000019305662018863214 0.000000263947445408652555 -0.000000062658738849191883 -0.000000111258170763837117
112.000000 -0.000000140599563710813722 -0.000000056623381936828706 0.000000055412109639119994 0.000000306111666187607992 -0.000000037086372547774299 -0.000000093621183220824709
114.000000 -0.000000210972761823242147 -0.000000137701030777829693 -0.000000032502601146462583 0.000000220739219761147356 -0.000000107679089663308086 -0.000000148229141270631558
116.000000 -0.000000340915781105074285 -0.000000290889348744356881 -0.000000201440454299305433 0.000000051429243620943103 -0.000000241699993156230226 -0.000000249877467381183390
118.000000 -0.000000377670536333207255 -0.000000332585938308191215 -0.000000245651097768217896 0.000000010983123432241428 -0.000000278642046764601100 -0.000000278883732160348848
120.000000 -0.000000435145790579567475 -0.000000398847628981938693 -0.000000317155097445844756 -0.000000057322609968061105 -0.000000336234846179798244 -0.000000323483778859796439
122.000000 -0.000000359996039392038955 -0.000000305990258633358125 -0.000000210604416429313936 0.000000058112049932509282 -0.000000254832609488621385 -0.000000264129801523712149
124.000000 -0.000000443772509001951304 -0.000000403624098843915760 -0.000000317191516675946364 -0.000000046383732840269741 -0.000000339947042400097482 -0.000000329489327470486848
126.000000 -0.000000330494293304519408 -0.000000265939255914108012 -0.000000160634240859810417 0.000000121030205158769704 -0.000000218855020877851238 -0.000000240056181994021179
128.000000 -0.000000277359831702426224 -0.000000199721971660505963 -0.000000083852463367456128 0.000000205983562297036058 -0.000000160728197057084894 -0.000000198082986357689245
130.000000 -0.000000277858281406873850 -0.000000197305869835062050 -0.000000078464415829801045 0.000000216911628735173225 -0.000000158844209750588274 -0.000000198326906977936016
132.000000 -0.000000221422608193852190 -0.000000127521763393659948 0.000000002172169875465362 0.000000305860598944815131 -0.000000097585175653909590 -0.000000153828134774045126
134.000000 -0.000000305034295576773574 -0.000000226463862017852210 -0.000000106519548077880463 0.000000198795206665107721 -0.000000184885646184090294 -0.000000219895399196012281
136.000000 -0.000000274530924175741047 -0.000000187254988657244179 -0.000000059955554183297368 0.000000252786409721916678 -0.000000149874819602233929 -0.000000195296916156154406
138.000000 -0.000000385475750408198965 -0.000000317065289748834595 -0.000000202406656259964937 0.000000111290449910098402 -0.000000263531313125155659 -0.000000282089484769100928
140.000000 -0.000000396753935290908578 -0.000000328351238283065536 -0.000000212628372368654351 0.000000106116068651330833 -0.000000273854004936680214 -0.000000290986494342135164
142.000000 -0.000000425827008029283776 -0.000000359274810249521922 -0.000000244102539241626016 0.000000079343935310756882 -0.000000300728726391003171 -0.000000313271297147900521
144.000000 -0.000000556185539968196904 -0.000000512983395676303939 -0.000000413497779124756763 -0.000000089929689231880665 -0.000000435510833699124548 -0.000000415653209357186369
146.000000 -0.000000463267659592615507 -0.000000398221495990492269 -0.000000281854259742628927 0.000000052493381092590506 -0.000000333675743300892437 -0.000000341484337564647906
148.000000 -0.000000556890898059726339 -0.000000507508433827266589 -0.000000401444953623176956 -0.000000065470148142245178 -0.000000429721693074296237 -0.000000414849933731619581
150.000000 -0.000000546404216767140816 -0.000000492579808005108111 -0.000000382104635466668612 -0.000000039701252575374572 -0.000000416635207643750951 -0.000000406442197056422143
152.000000 -0.000000475894637166688190 -0.000000405586755145393949 -0.000000282108260184608731 0.000000069317454768602968 -0.000000340535723156595058 -0.000000351013437894055973
154.000000 -0.000000285099655789716714 -0.000000172957223150350327 -0.000000018272967551443340 0.000000348456076311017731 -0.000000135561644782725900 -0.000000200104797276188177
156.000000 -0.000000410745926885575528 -0.000000320399228159169550 -0.000000180603758707176256 0.000000186098313761226842 -0.000000265254072807909101 -0.000000298730229769057648
158.000000 -0.000000270879080590526806 -0.000000151628563216941090 0.000000010628511471739006 0.000000389847716594241457 -0.000000116837126094590535 -0.000000188338460620966183
160.000000 -0.000000324781774334581194 -0.000000213686752723107368 -0.000000056128872245911060 0.000000326742329528504094 -0.000000171010475597465909 -0.000000230527644782529896
162.000000 -0.000000310262675366862982 -0.000000194705600452179329 -0.000000032576333872677337 0.000000356745124056220127 -0.000000154220589622373876 -0.000000218970222497043717
164.000000 -0.000000330731305818771236 -0.000000217852652772310553 -0.000000056355845698193819 0.000000337596700538219239 -0.000000175199573486508031 -0.000000235698726718083309
166.000000 -0.000000580046944503818891 -0.000000513130225296114630 -0.000000384343642169438977 0.000000003328289912696175 -0.000000435687416646344481 -0.000000432294070767550243
168.000000 -0.000000447759197756454929 -0.000000349470776939773606 -0.000000197413343648835651 0.000000202825551095753692 -0.000000290962936860097228 -0.000000326726805960433366
170.000000 -0.000000457710775562767889 -0.000000358367592440466449 -0.000000204473500382785433 0.000000201447533541866370 -0.000000298057449580692881 -0.000000333678914158491232
172.000000 -0.000000572813186953988349 -0.000000492842727248133488 -0.000000351994661354320537 0.000000054880321770076436 -0.000000415693589837359442 -0.000000423614209807565753
174.000000 -0.000000341454653449649790 -0.000000212809546634813877 -0.000000035733122058855375 0.000000387398736266892255 -0.000000170588915505837835 -0.000000241952942729611679
176.000000 -0.000000537448126724209481 -0.000000444114687085805635 -0.000000291858868634961564 0.000000127882762111333684 -0.000000373661267018757878 -0.000000395743319825766641
178.000000 -0.000000761160891085123235 -0.000000709934426173639550 -0.000000587302953233967007 -0.000000172918849002303979 -0.000000607790381630000737 -0.000000572012392552342290
180.000000 -0.000000978053722336708357 -0.000000967269575658103835 -0.000000872762424225118057 -0.000000462206441516448602 -0.000000832423690907957410 -0.000000741765680299892071
182.000000 -0.000001076574478133344535 -0.000001084237836663805703 -0.000001001970364953265240 -0.000000590940794823935727 -0.000000935484127054999224 -0.000000819308970917568628
184.000000 -0.000001038438856776496496 -0.000001037635949735099755 -0.000000947866602814813335 -0.000000530009838484792016 -0.000000894938879488980052 -0.000000789643613625020052
186.000000 -0.000000909053115314666362 -0.000000879405424590721183 -0.000000767910723412047357 -0.000000338299710898877358 -0.000000755538825988687800 -0.000000687376560739573338
188.000000 -0.000000874328593987032035 -0.000000835281720488509356 -0.000000716267467659686905 -0.000000280320567044350119 -0.000000717393019142111363 -0.000000660014772516488760
190.000000 -0.000000871086325996022929 -0.000000829353736165688166 -0.000000707335370471079458 -0.000000266052162484922853 -0.000000712294125739879589 -0.000000657601975505499128
192.000000 -0.000000688279580456812999 -0.000000610074147343063502 -0.000000460217812942256687 -0.000000005293220505386904 -0.000000519200517275286991 -0.000000513597947010621380
194.000000 -0.000000472498122685930820 -0.000000349445968723598311 -0.000000166241851977462842 0.000000303424354729905885 -0.000000290414427246004927 -0.000000343844323246557155
196.000000 -0.000000506155005551993227 -0.000000388216286118217416 -0.000000207558709009678744 0.000000265907008862077128 -0.000000323547367600532635 -0.000000369853981513364205
198.000000 -0.000000699665817112314171 -0.000000617065453983115595 -0.000000461312582957354583 0.000000007898202802662217 -0.000000525269425575655367 -0.000000522199474374931566
200.000000 -0.000000684806216820569084 -0.000000598025336713990790 -0.000000438276379045381932 0.000000035868623287262321 -0.000000509294311967549057 -0.000000510744391371815091
202.000000 -0.000000912915096387789891 -0.000000868055819338591077 -0.000000738068646320099100 -0.000000269392932538516496 -0.000000745728926852717296 -0.000000689390541577344550
204.000000 -0.000000678109979055616612 -0.000000585152229781101975 -0.000000419380040786250366 0.000000064636434999721300 -0.000000497343278209685505 -0.000000504669915639703357
206.000000 -0.000000410821148337242784 -0.000000263047503874014452 -0.000000056645882699344612 0.000000444398481877036262 -0.000000214084074851130896 -0.000000293933893431819910
208.000000 -0.000000425828957111710911 -0.000000278129876104078263 -0.000000071277608905129725 0.000000433624559343876803 -0.000000226571955712451212 -0.000000304795033912485682
210.000000 -0.000000583285286409147384 -0.000000463304518853978621 -0.000000276235703115275964 0.000000225511992991010243 -0.000000389782910910970496 -0.000000428746586887406642
212.000000 -0.000000694607555967675925 -0.000000594901910311058192 -0.000000421985204051631319 0.000000078094156476528978 -0.000000506028741402322834 -0.000000516735228630146622
214.000000 -0.000000894095366675662265 -0.000000832736386262930194 -0.000000686566855779562286 -0.000000191562947282829859 -0.000000714947781746443580 -0.000000673683059442757635
216.000000 -0.000000856011709563603606 -0.000000785719295439001885 -0.000000632310678754532555 -0.000000131829344815612537 -0.000000673489759210863350 -0.000000643371220062116475
218.000000 -0.000001192919678416915189 -0.000001187047763522521672 -0.000001079615146976786215 -0.000000590466498285852889 -0.000001024712950240559980 -0.000000907828901115270418
220.000000 -0.000001088449552938498740 -0.000001058114798858202748 -0.000000932877059417314603 -0.000000435206456055961931 -0.000000911415023980399598 -0.000000824979325999738594
222.000000 -0.000000490030184268511648 -0.000000339252364703204923 -0.000000126073346261109637 0.000000403338139450562060 -0.000000279268612546400658 -0.000000353573208119509942
224.000000 -0.000000231002689801712930 -0.000000029666427450064263 0.000000221601747021825032 0.000000766710803363751962 -0.000000007478247207204442 -0.000000149987658735559265
226.000000 0.000000043447263895290558 0.000000300297046204313493 0.000000592422632649727924 0.000001153581453136461680 0.000000282374518490573568 0.000000065630386219720370
228.000000 -0.000000122929896796038887 0.000000102001081637958552 0.000000371076039065972951 0.000000926496807773456492 0.000000106955263607162595 -0.000000065781141440149230
230.000000 -0.000000254897851272497936 -0.000000057558972274391728 0.000000192498333493395578 0.000000743901123564578411 -0.000000034571424062128651 -0.000000170967458483746676
232.000000 -0.000000543221798141921138 -0.000000402808390052104148 -0.000000192997016237238969 0.000000348611246391719032 -0.000000336005191124149382 -0.000000396578092363841608
234.000000 0.000000187739036728208078 0.000000478680320195138754 0.000000796359553825636510 0.000001373304942635392847 0.000000434413825995288530 0.000000176673722705467942
236.000000 0.000000184776358929580664 0.000000479108499253576480 0.000000798593617964650352 0.000001377544983349693909 0.000000433903364012117138 0.000000174609150675965393
238.000000 -0.000000478284144166595409 -0.000000312507395315271497 -0.000000085219742372448350 0.000000467924302216100510 -0.000000257723928178889457 -0.000000344173849790481511
240.000000 -0.000000899333487773948235 -0.000000815575548134260120 -0.000000647191970845309354 -0.000000110549714549819517 -0.000000699702661152934197 -0.000000675107405351936338
242.000000 -0.000000292960478681555199 -0.000000086338188266173257 0.000000171797747206918102 0.000000740922544089763162 -0.000000056350114722969165 -0.000000195880075755471371
244.000000 -0.000000369903534076190778 -0.000000172072730971848951 0.000000078410536703182491 0.000000645421077432589475 -0.000000134640160808156244 -0.000000257536008006365969
246.000000 -0.000000164294556513191965 0.000000070583883549878150 0.000000349556472853911783 0.000000928570248129481224 0.000000079236597896954254 -0.000000095673291390179714
248.000000 0.000000078008295756019010 0.000000365840015859661680 0.000000682683272445196315 0.000001275789162828611246 0.000000339259711805266486 0.000000096095973139004284
250.000000 -0.000000308556384431913234 -0.000000099693596102138551 0.000000161488603448411129 0.000000739478235937172504 -0.000000068343288938291249 -0.000000207563574957232101
252.000000 -0.000000121881108666035797 0.000000124573844587583742 0.000000413294598248688417 0.000001001872879075804445 0.000000128136974834526284 -0.000000061306508820108506
254.000000 -0.000000242405202090051696 -0.000000020663037292178307 0.000000251266436370535610 0.000000837120695329850830 0.000000002165873480439042 -0.000000155833353956674004
256.000000 0.000000072890917236885288 0.000000354830865848233110 0.000000671147545855270461 0.000001272615056514951015 0.000000331240919563285637 0.000000091778459526557436
258.000000 0.000000355672686190513973 0.000000694341621297556599 0.000001051564266979583430 0.000001666617852741819617 0.000000626777274439572634 0.000000312971788825986194
260.000000 -0.000000395495303802964440 -0.000000207816548305568554 0.000000041895800382350662 0.000000625785613330697771 -0.000000162021123711788217 -0.000000276643516976938754
262.000000 -0.000000139225065952197330 0.000000101343571062048991 0.000000389322200321083490 0.000000986691769496021767 0.000000108686856214954164 -0.000000075044193154501462
264.000000 -0.000001298854953333132692 -0.000001289265546388314889 -0.000001167874978016217022 -0.000000622874604313587469 -0.000001114115200180139270 -0.000000988733979365058357
266.000000 -0.000000968794147094565501 -0.000000890446187029416629 -0.000000719542750028244121 -0.000000157070223409300354 -0.000000763369893939963388 -0.000000728291266621119048
268.000000 -0.000000964594360893593207 -0.000000885497726637295881 -0.000000713565510907952901 -0.000000149455958551803655 -0.000000760467871187059483 -0.000000726422863991350605
270.000000 -0.000000970670623696434016 -0.000000892689319128558161 -0.000000721066756555105235 -0.000000155510929666722982 -0.000000766748411585761995 -0.000000731316691284212245
272.000000 -0.000001170173826833414733 -0.000001134681365445950322 -0.000000992304424159658900 -0.000000433729029882159117 -0.000000978781877519644403 -0.000000888676219642787029
274.000000 -0.000000850722964468452884 -0.000000750911211652905480 -0.000000561922677611517198 0.000000012568852638402183 -0.000000642682313906640358 -0.000000637987353723096824
276.000000 -0.000001021508651357471220 -0.000000952530123654476937 -0.000000785752822781346096 -0.000000215935353929917812 -0.000000817163035428021780 -0.000000770386005640730574
278.000000 -0.000001292664637005336170 -0.000001274819186380294488 -0.000001145267447788590467 -0.000000586017952053691815 -0.000001098937472246136294 -0.000000982505730825928430
280.000000 -0.000000709934437157209163 -0.000000573584363962097214 -0.000000357998668616341766 0.000000231026510097007339 -0.000000482772545031755790 -0.000000523403344614097612
282.000000 -0.000000428783186537656408 -0.000000235359826396881961 0.000000021612748199732820 0.000000625186687470220230 -0.000000186536623948096743 -0.000000302546975721179685
284.000000 -0.000000819343969832391005 -0.000000703199377570770783 -0.000000501750977859456009 0.000000084611900713228434 -0.000000599974109097279796 -0.000000610989247092817250
286.000000 -0.000001008519194040450609 -0.000000926883966053877793 -0.000000751127087925088619 -0.000000172479526808134012 -0.000000797785734162271960 -0.000000760145778440290133
288.000000 -0.000001021629691390064086 -0.000000939501781760444545 -0.000000763251513334903848 -0.000000181996041683367071 -0.000000806132940403682513 -0.000000768371988544666381
290.000000 -0.000001226613699853864554 -0.000001185952616395414689 -0.000001038916614662155553 -0.000000465328925596944263 -0.000001023093403859261874 -0.000000930981123984112511
292.000000 -0.000001559039489053724351 -0.000001585103639709879934 -0.000001485942323457613930 -0.000000926801560858311411 -0.000001374946192042809909 -0.000001193559264312507438
294.000000 -0.000001273488648562871680 -0.000001241531903918675730 -0.000001099852519271932170 -0.000000524675758105950350 -0.000001071114260315812484 -0.000000967460182011109083
296.000000 -0.000001237843167831111718 -0.000001198029726715114395 -0.000001050414768014072319 -0.000000471588184369270399 -0.000001031673846395264961 -0.000000938118710210462982
298.000000 -0.000001389205142210263849 -0.000001376522709804438175 -0.000001248688371190386815 -0.000000674857909663344411 -0.000001188129625986005962 -0.000001056528693732768383
300.000000 -0.000001388673567162528340 -0.000001371876553790122408 -0.000001241406314854882315 -0.000000665907106345532370 -0.000001185319967358830700 -0.000001056329398966839057
302.000000 -0.000001559470637000330299 -0.000001574331770780521542 -0.000001466457919754454137 -0.000000895598299886241808 -0.000001360800191009334211 -0.000001189286530765377320
304.000000 -0.000001516785213466080797 -0.000001523995190109055131 -0.000001410307737958079050 -0.000000836691760757634379 -0.000001317607337174146936 -0.000001156733728690946831
306.000000 -0.000001825438732599250425 -0.000001894523141228632627 -0.000001824942535934914434 -0.000001263613077595079148 -0.000001642527637800996001 -0.000001399548031473125671
308.000000 -0.000001607827510828656076 -0.000001635679992464303986 -0.000001535291909414445513 -0.000000962820227612199963 -0.000001416853326373299311 -0.000001229681425341184360
310.000000 -0.000001590746300901773827 -0.000001615638349740558285 -0.000001512056027740459410 -0.000000936354969672869701 -0.000001398419183571001055 -0.000001215939324788441565
312.000000 -0.000002258034082307143029 -0.000002420805396933145133 -0.000002415082117825017926 -0.000001868644953449758722 -0.000002104015181086215254 -0.000001740501767637033844
314.000000 -0.000001522590482238731821 -0.000001526663373936916212 -0.000001408564532842422795 -0.000000824603067959645257 -0.000001317156602273731382 -0.000001159650164703228508
316.000000 -0.000000233591562675134113 0.000000026885088660716007 0.000000335134723747610911 0.000000981845515044088386 0.000000046909146917099738 -0.000000144178933317808620
318.000000 -0.000000756373187663659429 -0.000000606563848899015553 -0.000000375567100568457240 0.000000249904421558191249 -0.000000507398267945256970 -0.000000554499097453276290
320.000000 -0.000000039118046888862777 0.000000244357491168493915 0.000000574074312726928999 0.000001231461697629871546 0.000000236471257649755512 0.000000006876497097387961
322.000000 -0.000000654738393472059289 -0.000000491107237234376178 -0.000000248130762649311102 0.000000384074412087198430 -0.000000406702669358670334 -0.000000474967510772460740
324.000000 -0.000000245179640904986776 -0.000000002096162265263428 0.000000300193819231274167 0.000000953681910443116704 0.000000022434606552037423 -0.000000154044106762145727
326.000000 -0.000001800689567853667892 -0.000001866964761149215278 -0.000001787776230902700397 -0.000001203388908812938588 -0.000001613574907860712769 -0.000001377884337090745191
328.000000 -0.000002809233951162216711 -0.000003073401516314013827 -0.000003138886578141802996 -0.000002601868149253318755 -0.000002674817011262160273 -0.000002172827762315723792
330.000000 -0.000001804349493853179966 -0.000001871797340956481573 -0.000001793610312000187616 -0.000001208216219368135763 -0.000001620164781725356667 -0.000001382957214708424630
332.000000 -0.000002225034592730310531 -0.000002378794554801919480 -0.000002362202280214789161 -0.000001795606387347154117 -0.000002068066161284304610 -0.000001716320318292041073
334.000000 -0.000001411811910306809290 -0.000001399639113795883185 -0.000001264612857184530661 -0.000000661783624204991666 -0.000001214367387767994541 -0.000001080454817757128414
336.000000 -0.000001594268284182474260 -0.000001618009706905639858 -0.000001507989309567470226 -0.000000908997426566414300 -0.000001401888487801672142 -0.000001220463734840642034
338.000000 -0.000000556606092439769412 -0.000000370632374204500925 -0.000000109474591060719707 0.000000538809543122175002 -0.000000308531352892499669 -0.000000404968224015620104
340.000000 -0.000000107788927616399097 0.000000174504331827551582 0.000000503884563626180506 0.000001174892017362734572 0.000000168851690931734809 -0.000000052411528424692197
342.000000 -0.000000522784163701257135 -0.000000318783241958455794 -0.000000047375223975177518 0.000000604506446233718602 -0.000000267109974337832658 -0.000000379414975837481197
344.000000 -0.000001338658047331486298 -0.000001289192016439504140 -0.000001130355701224686224 -0.000000512305619652004673 -0.000001116985818292147244 -0.000001018325361201678168
346.000000 -0.000000513540636114265548 -0.000000294020053154530800 -0.000000012985817941343468 0.000000646254948391467932 -0.000000241827564881538310 -0.000000366631429112405021
348.000000 -0.000001503189863355035377 -0.000001479443280118262163 -0.000001338086871764206960 -0.000000718182648363222035 -0.000001275312746850137493 -0.000001139964219592043634
350.000000 -0.000000606779764725847972 -0.000000406491253151638778 -0.000000136501105934411274 0.000000525726182913303644 -0.000000338772970332986581 -0.000000438642821999239188
352.000000 -0.000000456726375602850468 -0.000000225364048423497224 0.000000068483681685981505 0.000000743273705780282361 -0.000000172361575972484283 -0.000000315182914956263381
354.000000 -0.000001673356745533096962 -0.000001683933265374237529 -0.000001563809746466428384 -0.000000943028940639244609 -0.000001455683408094287734 -0.000001275015970104302774
356.000000 -0.000002272505681093894887 -0.000002398636298693872828 -0.000002363552122243019556 -0.000001771810636984983445 -0.000002091394402021482260 -0.000001752174722446454684
358.000000 -0.000001246324391467586009 -0.000001163398040239993695 -0.000000976978398440135382 -0.000000333987544088017337 -0.000001005031322385830309 -0.000000942959103062531780
360.000000 -0.000001372685819591639086 -0.000001320247570331230387 -0.000001154301699237947253 -0.000000515646315764642014 -0.000001143500108268379964 -0.000001043420069778035649
362.000000 -0.000000715951552947827453 -0.000000524486003674001864 -0.000000259065857194915208 0.000000414225616602320473 -0.000000441770386569664480 -0.000000524347975696085820
364.000000 -0.000001622439336332941429 -0.000001612281617486841846 -0.000001477384075680515134 -0.000000844366980886059024 -0.000001398676009896295487 -0.000001238682097211706629
366.000000 -0.000001477270259681133953 -0.000001444736201852134456 -0.000001291265912835724040 -0.000000649542858562155884 -0.000001251222017208894962 -0.000001124866583998887988
368.000000 -0.000001828284055549293246 -0.000001860461973953378392 -0.000001755233039120078184 -0.000001128484277524346330 -0.000001616492675036725767 -0.000001400316889491318840
370.000000 -0.000001837601824255894413 -0.000001870665791742511239 -0.000001764926493009951472 -0.000001135193353302112594 -0.000001625072027331991996 -0.000001408351218932612080
372.000000 -0.000001085659243447535895 -0.000000963604988622829535 -0.000000745244977779322268 -0.000000074640406651734111 -0.000000822539118171852062 -0.000000812815430040561590
374.000000 -0.000001946058602914587486 -0.000002000862203872537091 -0.000001908960064997761437 -0.000001276643275632240583 -0.000001733712142277525705 -0.000001491111450283850516
376.000000 -0.000001575711134629923954 -0.000001559910723273194091 -0.000001415738190614565068 -0.000000763992615076448016 -0.000001345680415673991620 -0.000001198577865993727527
378.000000 -0.000001453511936439138334 -0.000001413221812703232594 -0.000001250096851624761353 -0.000000588878010642959891 -0.000001215949689658957979 -0.000001101145340528054812
380.000000 -0.000002846774558491853223 -0.000003088741880780604864 -0.000003129018940580221079 -0.000002533792511758096006 -0.000002694883054887655763 -0.000002203693192311296936
382.000000 -0.000002556514900565430333 -0.000002748973049626484441 -0.000002748693340442080495 -0.000002132871607579954955 -0.000002386956172675114076 -0.000001971205765511725555
384.000000 -0.000002591141255146069879 -0.000002780516984050016115 -0.000002779889577473102676 -0.000002164635012826811674 -0.000002421031091778685443 -0.000002001410074811472734
386.000000 -0.000001535274019680105653 -0.000001512592617680249550 -0.000001358105172596485564 -0.000000690216963824737548 -0.000001305339189354870155 -0.000001168921671214806378
388.000000 -0.000000950131525375436050 -0.000000803217596031875309 -0.000000561062236361862038 0.000000135637442761175094 -0.000000686543597895125338 -0.000000711186167789855017
390.000000 -0.000001213522049594763611 -0.000001120405910567674862 -0.000000915405192396427452 -0.000000226703892352072866 -0.000000961274888738361347 -0.000000916044195862107076
392.000000 -0.000000509005722608479269 -0.000000275582456492313865 0.000000030584602237953503 0.000000752710378750224986 -0.000000222606846163872208 -0.000000363184691246245154
394.000000 -0.000000802041120267225329 -0.000000633161874319390722 -0.000000369782836875933854 0.000000344295161513918661 -0.000000532944216182517072 -0.000000593288086710791065
396.000000 -0.000000651496372428943730 -0.000000443580157722495327 -0.000000154357271016377608 0.000000567509593915501516 -0.000000372634572960611579 -0.000000477096606098771057
398.000000 -0.000001499237828530222276 -0.000001461562109539300154 -0.000001294996218160970281 -0.000000611476068246115479 -0.000001270132567003438742 -0.000001147108176207132173
400.000000 -0.000002585161417491306586 -0.000002765732756930173329 -0.000002755716167233599856 -0.000002118656761810955588 -0.000002412164052521243326 -0.000002000724913712236355
402.000000 -0.000001514180882700539598 -0.000001488058191407974743 -0.000001325722970449592769 -0.000000635692704225043854 -0.000001290379595475692808 -0.000001158760535600438697
404.000000 -0.000001754425567967007522 -0.000001779804701865896049 -0.000001653235644974185113 -0.000000972580786742502289 -0.000001548548081046298510 -0.000001350159157157870187
406.000000 -0.000001360287028150302693 -0.000001302931020881464759 -0.000001117030179334825300 -0.000000415306154697191816 -0.000001129757777603594417 -0.000001039207559128403140
408.000000 -0.000001772551237050154317 -0.000001792468471588417769 -0.000001662955960080378681 -0.000000976149795510127247 -0.000001557999754534846999 -0.000001362140161494754216
410.000000 -0.000002443175253704917418 -0.000002592216202722103682 -0.000002556134184129866976 -0.000001896111745593828204 -0.000002258691229462070789 -0.000001888033750066133577
412.000000 -0.000001540073221755541144 -0.000001504143211865836307 -0.000001333012241571616399 -0.000000623030833109021973 -0.000001297230253629818754 -0.000001173343781597868201
414.000000 -0.000001703575679441064516 -0.000001699464746674539144 -0.000001550471216269407514 -0.000000843739690261028499 -0.000001467147344206520297 -0.000001301135568833336404
416.000000 -0.000001016837957386634640 -0.000000867013335219456926 -0.000000613660358718548669 0.000000129273400563606476 -0.000000736808977340470862 -0.000000759147349656996854
418.000000 -0.000001628370293669725095 -0.000001599077848410362024 -0.000001431992232371548035 -0.000000714806938883928528 -0.000001384651072850225228 -0.000001242938465088553776
420.000000 -0.000001858345815067578115 -0.000001878946722453167703 -0.000001746046413328616390 -0.000001037244642782222585 -0.000001634624064927597461 -0.000001427131458359976128
422.000000 -0.000002694660932657811249 -0.000002880134981924431336 -0.000002866488300272780093 -0.000002194278815367123794 -0.000002515639806373652786 -0.000002086110089194827202
424.000000 -0.000001830352170394476808 -0.000001827840428603510557 -0.000001680887588389631289 -0.000000962358441231557637 -0.000001588977392018788773 -0.000001400928290815602231
426.000000 -0.000000358849236522337526 -0.000000055202268559578750 0.000000309248189244478684 0.000001103345590318838323 -0.000000025590741255781220 -0.000000237827284705424630
428.000000 -0.000001211915125413947450 -0.000001079941477768802922 -0.000000837705809313761272 -0.000000079143859264807555 -0.000000928326227627006319 -0.000000912875219580939427
430.000000 -0.000002759981908254233400 -0.000002936878940116133767 -0.000002917593928424966405 -0.000002228497645266139615 -0.000002561727453015495967 -0.000002133863619889824493
432.000000 -0.000002500519454475728939 -0.000002627764070171036665 -0.000002571669859803900670 -0.000001869852540838381439 -0.000002298029204395888710 -0.000001935643570408650642
434.000000 -0.000002061446120544307482 -0.000002091310144530706108 -0.000001965981357427170923 -0.000001237823679784319112 -0.000001823455972743299096 -0.000001586259551016893732
436.000000 -0.000001545033763660185530 -0.000001474824977783585225 -0.000001274200074146319931 -0.000000515453217097934793 -0.000001278357908794252738 -0.000001177127604933477633
438.000000 -0.000001746406565054936981 -0.000001714994450784434541 -0.000001541266487991074128 -0.000000785768495042909545 -0.000001485517206731639485 -0.000001333135009092632409
440.000000 -0.000000980866184001347149 -0.000000788979858597877864 -0.000000500209847006557866 0.000000295060118102757750 -0.000000672512184919401073 -0.000000729561158710426962
442.000000 -0.000001473103260664387758 -0.000001380181240640909663 -0.000001161413009124684393 -0.000000385391861626285851 -0.000001196091469826098257 -0.000001120453440620810553
444.000000 -0.000002604063211533162600 -0.000002724445156434182338 -0.000002661670237428604385 -0.000001932828680749932696 -0.000002376743762887538249 -0.000002008955267706962703
446.000000 -0.000001825137588956669168 -0.000001786792657784180910 -0.000001608567285711678520 -0.000000837108035009666686 -0.000001549520730071576159 -0.000001393224109756669944
448.000000 -0.000001884728975835666087 -0.000001855210274958197381 -0.000001683605761815129135 -0.000000911403925819199040 -0.000001610982247846291782 -0.000001441749624542614509
450.000000 -0.000002264371168454413160 -0.000002310379088043170616 -0.000002192450219920703765 -0.000001433710099687106172 -0.000002011514902134822007 -0.000001740897937349640125
452.000000 -0.000002747337039807574065 -0.000002893466268858000697 -0.000002845225029121691888 -0.000002103388773194356249 -0.000002521313641357060534 -0.000002120822800280070386
454.000000 -0.000002590574341505853807 -0.000002702742718783443782 -0.000002629607086246489834 -0.000001876373438345458937 -0.000002356874943878358864 -0.000001999583755019881906
456.000000 -0.000002431672567693663719 -0.000002514913139396297669 -0.000002418593002403043520 -0.000001653086594271759901 -0.000002192099695654577745 -0.000001875198438993413483
458.000000 -0.000003191064479930535821 -0.000003426528053556530448 -0.000003439190611775331575 -0.000002704968824484927133 -0.000002994272132005708991 -0.000002473355383984804068
460.000000 -0.000003748109472910254435 -0.000004092484317939666124 -0.000004182377824716509400 -0.000003466840093931278904 -0.000003575116753279964269 -0.000002909734283020627603
462.000000 -0.000002760255378338586370 -0.000002902956032408179408 -0.000002845818093696287572 -0.000002077640380054621518 -0.000002528060537740026305 -0.000002131976808432175505
464.000000 -0.000005273674994747847650 -0.000005887877132775599739 -0.000006175925558403069298 -0.000005513123350124557035 -0.000005142399263465686502 -0.000004103055532521001278
466.000000 -0.000004737944962279728641 -0.000005244803975135760615 -0.000005453002462026817873 -0.000004761334819119856688 -0.000004585276966420698865 -0.000003685229117230397566
468.000000 -0.000002548910468045808947 -0.000002620275512856660569 -0.000002510193337560050126 -0.000001706065162238410873 -0.000002269142137514068820 -0.000001954033234030205102
470.000000 -0.000002239373030567317575 -0.000002271049743469352038 -0.000002126140838790567165 -0.000001303082420011726995 -0.000001960178877163198496 -0.000001711960218562634417
472.000000 -0.000000211186740235486945 0.000000168437281428679326 0.000000608423477459693573 0.000001528299869662006536 0.000000178390607033227835 -0.000000116145375329303761
474.000000 -0.000001775775627489876849 -0.000001710452021113164971 -0.000001493637924728888063 -0.000000638647098332233717 -0.000001474128085238923345 -0.000001349657596209236505
476.000000 0.000001225454479458117452 0.000001894376703847915454 0.000002549270152528436782 0.000003552423145084919357 0.000001693624178101026476 0.000001012471241104407413
478.000000 0.000000178065155723422233 0.000000637913186993718344 0.000001143468695574322205 0.000002105444408130088102 0.000000594808567210276624 0.000000189753097163883220
480.000000 -0.000002818891941547243540 -0.000002955667036415270811 -0.000002881504546527644392 -0.000002053754390168552430 -0.000002560490997780800202 -0.000002171344816898385815
482.000000 -0.000002959891580195239166 -0.000003118396942581216428 -0.000003062500935967047786 -0.000002241847815296344842 -0.000002714348236916941604 -0.000002288446057463802709
484.000000 0.000000346401831338673845 0.000000852176060082377501 0.000001388350168986958332 0.000002368891485530737946 0.000000771813878431055079 0.000000314716957646282778
486.000000 0.000000666860411315597792 0.000001219856192622222855 0.000001797750776623041778 0.000002801034626474814888 0.000001093049684348494106 0.000000562875895216445353
488.000000 -0.000000070861371887121188 0.000000334524309106893726 0.000000805798705210429920 0.000001775649078570916233 0.000000302785554896431160 -0.000000028002096716876031
490.000000 -0.000001383739457426085171 -0.000001244176669169119923 -0.000000962523897993317940 -0.000000045726492877437757 -0.000001077617613346480634 -0.000001058515382860911591
492.000000 -0.000002523887720189614272 -0.000002614344505918712349 -0.000002495922334212674748 -0.000001623224069801548273 -0.000002277593095202213505 -0.000001954774982633335845
494.000000 -0.000003119021211393786979 -0.000003325977438585823767 -0.000003294346352306048631 -0.000002452507759315627881 -0.000002920730996727362057 -0.000002434058463416733337
496.000000 -0.000003227384047104211365 -0.000003443560021977579441 -0.000003420802026411800178 -0.000002581266350648883856 -0.000003036169823029135130 -0.000002527334299944379417
498.000000 -0.000002172945522013329911 -0.000002150536741228152317 -0.000001964089444323697666 -0.000001076248130098721543 -0.000001915412633076799094 -0.000001700546173951273644
500.000000 -0.000002861454753822461077 -0.000002958645577376570503 -0.000002859478288387218481 -0.000001990855507235622048 -0.000002618376061054367316 -0.000002234619105860058108
502.000000 -0.000005391870186292574550 -0.000005971512923921251558 -0.000006223905581759633178 -0.000005460438352412602085 -0.000005256555178137707684 -0.000004216292232950131641
504.000000 -0.000006342155544236376101 -0.000007096070959804927705 -0.000007473515427357466383 -0.000006740347648572955658 -0.000006236081869904098911 -0.000004956775632915076199
506.000000 -0.000008792866906331845632 -0.000010044875001556618818 -0.000010778041897967672271 -0.000010151527347514109522 -0.000008827037957322427203 -0.000006886734745920134220
508.000000 -0.000008735735772034914506 -0.000009963619956626573734 -0.000010678567440593038441 -0.000010034967249739445945 -0.000008747376880120898157 -0.000006833763596236968674
510.000000 -0.000006143954570655558730 -0.000006846375734450556798 -0.000007178422646370485378 -0.000006396465070294757519 -0.000005994178967567357673 -0.000004784582351911032147
512.000000 -0.000007836477190657598166 -0.000008864376730500787339 -0.000009432738744154254290 -0.000008724111876164883779 -0.000007777294535330375283 -0.000006123134934537157553
514.000000 -0.000007469373373345021806 -0.000008402180871130174945 -0.000008907106444480028713 -0.000008178493456663871923 -0.000007384883328001715975 -0.000005840860936664591387
516.000000 -0.000007873641179058679765 -0.000008877868013653914583 -0.000009434151569409028184 -0.000008716438867049564718 -0.000007807564590286816461 -0.000006161548250817705820
518.000000 -0.000009497641608907847875 -0.000010836392409104070718 -0.000011629373979997748633 -0.000010975954353605747499 -0.000009521048251823139625 -0.000007437396414951503505
520.000000 -0.000006888153772208058384 -0.000007693659243797774792 -0.000008100641845327743369 -0.000007315069784674949879 -0.000006761744396736432145 -0.000005383900792262157269
522.000000 -0.000006049968816834367320 -0.000006691850623481859648 -0.000006978959640249030794 -0.000006148852675334007188 -0.000005884112550142078889 -0.000004726055667919247337
524.000000 -0.000006604852694398843031 -0.000007363425884177598210 -0.000007731405845038784923 -0.000006919054564635768841 -0.000006475554471733406871 -0.000005164238542928549582
526.000000 -0.000007796945652293500996 -0.000008782102206591919236 -0.000009313876664822324931 -0.000008543672421055686328 -0.000007711838151514428114 -0.000006093936906411265888
528.000000 -0.000009989784448336138213 -0.000011406815350627013371 -0.000012253826720049315784 -0.000011586908907259142309 -0.000010033713993132345092 -0.000007831561557737835895
530.000000 -0.000009030148989404616512 -0.000010244085448992169964 -0.000010942410233205920276 -0.000010215903645764134129 -0.000009004692959984921362 -0.000007072896096337202862
532.000000 -0.000005381284314470266023 -0.000005861472661532559631 -0.000006027563964176585024 -0.000005117877115185937122 -0.000005146726554606189898 -0.000004195129943961179700
534.000000 -0.000006521688878987944774 -0.000007222462217424300341 -0.000007547396645631015351 -0.000006681205655005151182 -0.000006344529442328983212 -0.000005093635437808220561
536.000000 -0.000006045144129193904723 -0.000006662756553318467682 -0.000006923675756041796867 -0.000006027036394807708329 -0.000005849217426330279476 -0.000004714209112422935118
538.000000 -0.000006690575417856070814 -0.000007425088507990954209 -0.000007771596912727764855 -0.000006898667831346606305 -0.000006529931267570452091 -0.000005229423280848723649
540.000000 -0.000007964047027077329790 -0.000008964186922158245521 -0.000009496142081379022775 -0.000008668851237959883312 -0.000007874620385472897330 -0.000006231502209315554754
542.000000 -0.000007851440208837836784 -0.000008842585054250364347 -0.000009359709355610844257 -0.000008511876645818883147 -0.000007757003341021709202 -0.000006139725302681051275
544.000000 -0.000009941812849790166294 -0.000011344841729326098645 -0.000012156927826999526358 -0.000011393892579387584230 -0.000009953305995425484870 -0.000007784226879497682398
546.000000 -0.000007618699036879114214 -0.000008544880423412815854 -0.000009014428240964379610 -0.000008135861755028443124 -0.000007500465007571949920 -0.000005959392648632952648
548.000000 -0.000004236548876972258153 -0.000004480963675241376022 -0.000004458232816809256518 -0.000003414928532508387338 -0.000003937110072941306098 -0.000003301237278145238369
550.000000 -0.000002290141252967442949 -0.000002150936835732400931 -0.000001846686786862620857 -0.000000700979713899729023 -0.000001887922406859272705 -0.000001769232572030777081
552.000000 -0.000003182105267713755000 -0.000003201316798186623282 -0.000003015826702135179339 -0.000001903287418367330392 -0.000002811985939740022889 -0.000002469755132562777509
554.000000 -0.000002479312383681567443 -0.000002366021383555463502 -0.000002078697957581356616 -0.000000922956819461804112 -0.000002087068529666165973 -0.000001926329409693774980
556.000000 -0.000003193873525311069912 -0.000003213905899472225273 -0.000003022651459008923574 -0.000001889381920935316146 -0.000002833856452716342632 -0.000002490529016820244609
558.000000 -0.000005168096724926722750 -0.000005581344375804289934 -0.000005673754013341867307 -0.000004625206464826455910 -0.000004922090525910823948 -0.000004051663389772948656
560.000000 -0.000005334551745854505793 -0.000005790968714036900064 -0.000005908349457289174486 -0.000004853962542771588880 -0.000005101616734003500287 -0.000004181760568236871527
562.000000 -0.000003897369690107456405 -0.000004083927040592422280 -0.000004000088722215287396 -0.000002872903129603858124 -0.000003612486335006838326 -0.000003060961110028664612
564.000000 -0.000005495361017488223311 -0.000005991211527988298891 -0.000006131205874044934863 -0.000005065611006231664939 -0.000005282787930417065153 -0.000004316160317257874320
566.000000 -0.000005244821844708447553 -0.000005676502492658712034 -0.000005772272937377576971 -0.000004685206575323016306 -0.000005011750464603980983 -0.000004121176922429006478
568.000000 -0.000005543913293711831478 -0.000006033541120216483834 -0.000006167406965698252652 -0.000005079502345089242292 -0.000005321358827346402838 -0.000004355515847249405937
570.000000 -0.000006369927948246781294 -0.000007019537342199337791 -0.000007265270642772355710 -0.000006196887777852263310 -0.000006178789997602897786 -0.000005002903423961799368
572.000000 -0.000007457389672623758209 -0.000008308294031442733728 -0.000008699174694939875775 -0.000007666223790160928297 -0.000007310217226826306400 -0.000005858192985940150189
574.000000 -0.000007934303426970038155 -0.000008862379850030016747 -0.000009310260172442369288 -0.000008285492604527338548 -0.000007799701288135374138 -0.000006233291219316449512
576.000000 -0.000007313842112919822349 -0.000008100843453888942003 -0.000008448510955373937639 -0.000007383845316692839906 -0.000007137907055609723704 -0.000005746713500922301801
578.000000 -0.000007054577144403154933 -0.000007796810192749027167 -0.000008106841150859268782 -0.000007019854470401004587 -0.000006881950992427160010 -0.000005552012457752682088
580.000000 -0.000006567983270116584905 -0.000007193368105871024573 -0.000007421352390469688332 -0.000006298902757304830745 -0.000006354329653970698251 -0.000005167078828846786362
582.000000 -0.000006160616328894115147 -0.000006693871486819581128 -0.000006853235889688370063 -0.000005693904755341124112 -0.000005909478342001822307 -0.000004841024542927729127
584.000000 -0.000005627512020139505366 -0.000006064313810514800812 -0.000006148107805406834046 -0.000004952130497635165837 -0.000005361586620042085471 -0.000004429836471299026537
586.000000 -0.000005725740012745568526 -0.000006176590653345493041 -0.000006268847632776209989 -0.000005064352732916430582 -0.000005465107838847936141 -0.000004511525242929885268
588.000000 -0.000005001437071073522029 -0.000005304657893942733954 -0.000005287025866119830566 -0.000004034071284826911326 -0.000004700165018891773505 -0.000003945098743480506467
590.000000 -0.000004395971347514712552 -0.000004570819629940693067 -0.000004457416760147297871 -0.000003156204032198338449 -0.000004045312463362442055 -0.000003460702541080349511
592.000000 -0.000004838891340358255005 -0.000005097417586191312289 -0.000005041790632216502952 -0.000003745656867038934619 -0.000004506209625398148497 -0.000003807781129685728480
594.000000 -0.000004292012925032544626 -0.000004426840380243386509 -0.000004282912839944442361 -0.000002948311431768004632 -0.000003923020086806741053 -0.000003378815766180024111
596.000000 -0.000003767388941956903852 -0.000003796441442805104356 -0.000003574464497984678449 -0.000002206428707031877039 -0.000003384643370386837989 -0.000002977306085436758784
598.000000 -0.000003981033291013689999 -0.000004031132532872226346 -0.000003827079373058799959 -0.000002454402347316826637 -0.000003595072735696766324 -0.000003146437283838715819
600.000000 -0.000002303795921361768827 -0.000002016462255730089110 -0.000001565032383741337100 -0.000000098088847585870217 -0.000001821224166270796456 -0.000001826174545390387397
602.000000 -0.000001209933413399280771 -0.000000689814456978303756 -0.000000070045563452431208 0.000001464004510275517724 -0.000000657747581112019667 -0.000000966133515342822479
604.000000 -0.000003043254790922508508 -0.000002885990956030334576 -0.000002526836032394538569 -0.000001065428154201658275 -0.000002590546032547747115 -0.000002413632268090812324
606.000000 -0.000004414471546602934734 -0.000004527444363123649174 -0.000004361046970623492659 -0.000002949128730436560454 -0.000004036727694668265495 -0.000003497419909531996275
608.000000 -0.000005992060887237524004 -0.000006423744690422310425 -0.000006483734977642507100 -0.000005129112286379851544 -0.000005702212222237944987 -0.000004742638872553742390
610.000000 -0.000007253534959174022454 -0.000007951541307478733744 -0.000008197284905643085245 -0.000006889397079407797814 -0.000007048926510477481150 -0.000005744252393998623675
612.000000 -0.000008019080233378797994 -0.000008826151955897873323 -0.000009154514966396803228 -0.000007858305083460412083 -0.000007814944489171087364 -0.000006346185973906396565
614.000000 -0.000012236739084223786938 -0.000013850233284134640975 -0.000014763845132814358465 -0.000013640689899126857160 -0.000012226453967671723540 -0.000009664550271827247421
616.000000 -0.000014187677315984221474 -0.000016189317871747627994 -0.000017380199998044139993 -0.000016328567135513976771 -0.000014276250659187660850 -0.000011197143987545209187
618.000000 -0.000014360408181061704342 -0.000016418381077000864898 -0.000017641821638664277274 -0.000016583508904419307382 -0.000014478554744441370140 -0.000011338358158118265904
620.000000 -0.000010452110303373108750 -0.000011733059973390988623 -0.000012387879691543694918 -0.000011123026930850895546 -0.000010344129407394203458 -0.000008246296663487780442
622.000000 -0.000005267195456796120950 -0.000005534632572185866466 -0.000005444265685991217910 -0.000003918952058068383118 -0.000004902322753387882970 -0.000004175540278907848936
624.000000 -0.000006752759840177300904 -0.000007317725597127463044 -0.000007434170317051587392 -0.000005948709284294230141 -0.000006447922111712664701 -0.000005338389630875078494
626.000000 -0.000004893160050301509569 -0.000005073960546852149730 -0.000004915543818185404621 -0.000003332520473537672276 -0.000004478135235751963209 -0.000003877998475878936917
628.000000 -0.000004629685244368764429 -0.000004778244834487114304 -0.000004589801245232906791 -0.000002984133988493447078 -0.000004224353198979471212 -0.000003680207688028874375
630.000000 0.000002284584279845607759 0.000003497319534686675935 0.000004675058965520030418 0.000006605547270120532215 0.000003018355326626390310 0.000001741365310470293566
632.000000 0.000004313520439072285368 0.000005905952184727974899 0.000007368309693930966017 0.000009409717716265533164 0.000005139830307780253971 0.000003333091095777305088
634.000000 -0.000001323311502173651394 -0.000000864330966194315944 -0.000000217269156870371744 0.000001577692220080573686 -0.000000800906796602209523 -0.000001102565150205988290
636.000000 -0.000000701896920937592048 -0.000000124065893834206145 0.000000607372048107746544 0.000002429138305098753981 -0.000000184288850798765571 -0.000000640741159723897413
638.000000 -0.000001823219750014042784 -0.000001449734904844589734 -0.000000877240263620003646 0.000000879431933732667516 -0.000001397255667133279110 -0.000001553207797473778587
640.000000 -0.000000270348497938571410 0.000000432962605418132527 0.000001240984124381186072 0.000003083796591150888796 0.000000256270504940910383 -0.000000329079695640498559
642.000000 -0.000000303521773560869623 0.000000419653558638651373 0.000001237753293392174253 0.000003095862747660318028 0.000000252229250938165389 -0.000000344439402860744909
644.000000 0.000001676537274422290037 0.000002824150584399636386 0.000003949108546031000026 0.000005925078696206236471 0.000002390247517145433332 0.000001234707230860597737
646.000000 0.000001562570765020698115 0.000002683263389023476225 0.000003794681649414629922 0.000005780334237023893902 0.000002263736627038833933 0.000001142493471516167055
648.000000 0.000004969869787719966399 0.000006781796838938483478 0.000008394786630054147921 0.000010556944384020751197 0.000005880291348488189777 0.000003832781666174937028
650.000000 0.000003345278331890420340 0.000004845154994345008175 0.000006231314193763970442 0.000008322478533394309395 0.000004161118664159146272 0.000002539352341491853827
652.000000 0.000003100814791066301080 0.000004566811403384204844 0.000005921270043076320447 0.000007996142384370620105 0.000003892832452574102632 0.000002332268897908569290
654.000000 0.000000369010592544497525 0.000001274532265849835226 0.000002228249842931939815 0.000004180119155384042340 0.000000997922361248401855 0.000000174283804794609633
656.000000 -0.000001320124746854469528 -0.000000708789048763306781 0.000000023009937960151188 0.000001904674864764030108 -0.000000738685160158946869 -0.000001148788217968702926
658.000000 0.000002116757320695944269 0.000003393777936709475667 0.000004612034242085050970 0.000006653254566110642027 0.000002860236501967131533 0.000001548866150865429585
660.000000 0.000004189468392479922922 0.000005872242390897617020 0.000007389766250780677371 0.000009537893899525708226 0.000005055529770975776363 0.000003192147970800645666
662.000000 0.000006734891615729294798 0.000008912046217752151508 0.000010785366437768475949 0.000013040453832422655193 0.000007711814583603386112 0.000005181436098613088728
664.000000 0.000003453980465956386656 0.000004994191182473021276 0.000006406762565932778785 0.000008518902307794670939 0.000004294961630491686006 0.000002611324536315838207
666.000000 0.000001338550933221225076 0.000002437664142351667878 0.000003533792202758586013 0.000005544088918336541253 0.000002063161339720859813 0.000000949415767583066549
668.000000 0.000003747692985210924325 0.000005280864076178006769 0.000006694853141956839979 0.000008800579726963996769 0.000004556010598036373067 0.000002839991473609748742
670.000000 0.000004249432376902764378 0.000005866413945120730507 0.000007337647382702222490 0.000009442053716864000725 0.000005041526443667292796 0.000003214261990827004698
672.000000 0.000002923063965652380177 0.000004234752364208260081 0.000005493078404736246105 0.000007526563847598088169 0.000003620408298071234119 0.000002169512540727059947
674.000000 0.000004432074853443432372 0.000006006663891121709325 0.000007465977124075456863 0.000009562583029586702339 0.000005184271219621527745 0.000003353115299443904390
676.000000 0.000002915477029318105209 0.000004176136597233250225 0.000005407309746324041218 0.000007422314651159113404 0.000003590401223913199619 0.000002165778069530329914
678.000000 -0.000000176845249564981639 0.000000471995934933213797 0.000001252592744777713488 0.000003100915613335111669 0.000000325606581757936146 -0.000000280718305368231832
680.000000 0.000006762419992675963987 0.000008769024892683800705 0.000010533546389787937640 0.000012687663914158821908 0.000007618765429277221672 0.000005180609343525450654
682.000000 0.000010244016639107931895 0.000012924178913318971348 0.000015176134656263980135 0.000017473305927525191835 0.000011275069453079309277 0.000007923235006459766034
684.000000 0.000008836585289025573322 0.000011204642411717459830 0.000013234778029086388605 0.000015447084449833109107 0.000009761272797497045218 0.000006805696049101591731
686.000000 0.000005285855315534129108 0.000006920915875213611732 0.000008420390549427720519 0.000010443446387540753097 0.000006000850634980342249 0.000004006511776110953731
688.000000 0.000004302769159888501300 0.000005693086438365054156 0.000007018921476499037317 0.000008965432634054857418 0.000004913251928316415231 0.000003219835419666192171
690.000000 0.000008037075558153627372 0.000010140886616623873134 0.000011983885417783251030 0.000014079168092829432135 0.000008823445511787802165 0.000006159031343312565861
692.000000 0.000009188738801038302237 0.000011466107878057661126 0.000013443739780054873777 0.000015565942585322586688 0.000009982616246798573978 0.000007054371622086675543
694.000000 0.000010140446605620655670 0.000012602687499000673522 0.000014704101588718662355 0.000016839270559373380068 0.000010986075073896619359 0.000007808491820744319450
696.000000 0.000009181063348261085723 0.000011429886912237826940 0.000013375167385455835891 0.000015439541801168907325 0.000009955714936357684439 0.000007051876090408298326
698.000000 0.000007520255089759650330 0.000009404724468106641618 0.000011090488336143533110 0.000013056434065016640233 0.000008194818658112316997 0.000005753527496820422408
700.000000 0.000012280478901990881169 0.000015134840805967045684 0.000017514840665350675053 0.000019694459333565505284 0.000013262574140808998288 0.000009529199762863389101
702.000000 0.000012349522774946909050 0.000015211391830919548251 0.000017596381928972886242 0.000019765716948944397251 0.000013346428560790812059 0.000009592830252088541121
704.000000 0.000011234766386141613984 0.000013876041494269968633 0.000016094937898858517752 0.000018187690206803068332 0.000012176745727731015892 0.000008720849987439520910
706.000000 0.000007509491455012320812 0.000009417931366265663975 0.000011097356396110061397 0.000012990162555646070526 0.000008255422617912141795 0.000005791235967635217380
708.000000 0.000009131110698051876713 0.000011352964628253394555 0.000013253230162260010684 0.000015195438082858694998 0.000009957765102339969818 0.000007072331156875991282
710.000000 0.000006581282862271689074 0.000008289496584200954646 0.000009816062779405416758 0.000011616646829225472782 0.000007263114008548555437 0.000005065084129620194486
712.000000 0.000010876538567581000015 0.000013412962387006554537 0.000015536876402217184338 0.000017508327379108433816 0.000011764252116421697585 0.000008449325324933706124
714.000000 0.000010661361679341136287 0.000013160079109408583209 0.000015246400342434760004 0.000017177212129952867069 0.000011533314393141855342 0.000008282458147322981087
716.000000 0.000011921200121493796714 0.000014700018546716954110 0.000016978455746428147553 0.000018954837307200077755 0.000012900536205186804143 0.000009291288895201592506
718.000000 0.000003262983916279541232 0.000004303549634843282089 0.000005323559916365931804 0.000006887359949426443601 0.000003804992204485123809 0.000002499015366000482139
720.000000 0.000004480424698849762018 0.000005753142727073063908 0.000006936535003832162879 0.000008533040645184140972 0.000005079453247617244501 0.000003453333516424278872
722.000000 0.000008177486588708192497 0.000010167532260529914170 0.000011869311710227239810 0.000013610522643576717248 0.000008940923680190835412 0.000006348813401933703800
724.000000 0.000008390406416517411496 0.000010419241711221250430 0.000012144888621349612514 0.000013876019388286041573 0.000009169081495237331342 0.000006521526009253439835
726.000000 0.000009209474299008906263 0.000011372519587807384148 0.000013197363352450569110 0.000014940601580202713574 0.000009993542956353902734 0.000007153760983694177846
728.000000 0.000013003756082879687389 0.000015930205654451359224 0.000018299075696818454677 0.000020198620016074125350 0.000014009332258448160664 0.000010149796649426602872
730.000000 0.000011151639795060770937 0.000013725600524557491809 0.000015833213865633307988 0.000017641779719308497054 0.000012106578068089766763 0.000008721745107284025508
732.000000 0.000008374099186686436574 0.000010379146698323263415 0.000012076213748056054942 0.000013739713560333332017 0.000009167414771549226327 0.000006539466265351453183
734.000000 0.000002898074655726006664 0.000003815602980998951434 0.000004720136398590060121 0.000006116243140089497702 0.000003427896965198925832 0.000002247323593711889257
736.000000 0.000002481905364367019679 0.000003324005997157881338 0.000004169013237364972809 0.000005528531961424888548 0.000002994535202977624978 0.000001922959854569472435
738.000000 0.000005211258412397790279 0.000006607647029569336882 0.000007848711808636706596 0.000009318966004097571396 0.000005880651007287743154 0.000004075002162079046764
740.000000 0.000004994611099949627409 0.000006328266559298826837 0.000007523140638419678829 0.000008960989451822606430 0.000005623974204617663926 0.000003897809456623697225
742.000000 0.000003479112211526712407 0.000004478898501356827002 0.000005433628131377471373 0.000006774466612754799223 0.000003978496908207271832 0.000002683703778645544743
744.000000 0.000005452449427442547957 0.000006881261587327684196 0.000008127839544373726826 0.000009533162841375209169 0.000006071751031105032898 0.000004237117768681908668
746.000000 0.000004337560560262781659 0.000005571151338646937928 0.000006667947109724056294 0.000008015610664739680522 0.000004943280499603604415 0.000003379040322879254198
748.000000 -0.000000362231105170192762 -0.000000082641996580652195 0.000000323534119199725021 0.000001433201443625226930 -0.000000026161533652686290 -0.000000320748766040621669
750.000000 -0.000001060842934670803472 -0.000000964395502900319600 -0.000000681495393992557838 0.000000382874208191366347 -0.000000791128355290275841 -0.000000876224594229956352
752.000000 -0.000003095296312779030600 -0.000003372491617487891700 -0.000003376491446315079189 -0.000002431525245098568296 -0.000002917503836219000326 -0.000002478202628174950473
754.000000 -0.000005217879709155630900 -0.000005919954560645349729 -0.000006232286724277129849 -0.000005390638839158926746 -0.000005133479796760533137 -0.000004131852331599605487
756.000000 -0.000002341861713192811275 -0.000002458468657174595053 -0.000002356780047889280168 -0.000001397087652123692888 -0.000002083162217309370601 -0.000001859320009071539961
758.000000 0.000002412454106921178345 0.000003228975463446653555 0.000004005559008811719069 0.000005171401731278228913 0.000002918153617211831564 0.000001887210537868926537
760.000000 0.000003101792856121886368 0.000004015891799637833131 0.000004865252266716264706 0.000006034803515371055864 0.000003588974188314326549 0.000002410008038953629022
762.000000 0.000002575721734083589475 0.000003373820001580926345 0.000004135947492446474013 0.000005263982747776124547 0.000003031732464229502884 0.000002002845384806003097
764.000000 0.000002018728457143631840 0.000002717860525301943222 0.000003403007373688087880 0.000004488505789276825640 0.000002446365576652021876 0.000001558384291559271354
766.000000 -0.000001069072464330973169 -0.000001033036647397095773 -0.000000820814148767550143 0.000000099878973191317583 -0.000000864491913488638310 -0.000000884339179024026595
768.000000 -0.000000694933122679115639 -0.000000580711300746498521 -0.000000317793211635442095 0.000000616954996146384651 -0.000000435791052259067321 -0.000000567811195435441156
770.000000 0.000002749212216356792436 0.000003550592863904965330 0.000004306924961141875926 0.000005381300750915675663 0.000003180813595886887519 0.000002136755043940504405
772.000000 0.000001437966010453731393 0.000001975466006238425068 0.000002542863513892861591 0.000003551284426014955884 0.000001805537986891935070 0.000001111646682133364927
774.000000 0.000001753258901108991013 0.000002314627145831753678 0.000002895797312761078022 0.000003890318210773580403 0.000002099079298558268425 0.000001356567880837335071
776.000000 0.000005086156822446983492 0.000006306081843566115271 0.000007362410296282703271 0.000008501687562405661701 0.000005612539717968546622 0.000003988634755776947952
778.000000 0.000004158594398628918247 0.000005126843204932856235 0.000006026469462372180558 0.000007123564125534413480 0.000004590793116710321158 0.000003257091328050542460
780.000000 -0.000000655470768895824545 -0.000000624616394359773631 -0.000000414152735440894897 0.000000455989025079641220 -0.000000443035914194388585 -0.000000524334561014089876
782.000000 -0.000014593364217764752180 -0.000017301160136806087236 -0.000019073055444210673318 -0.000018846220623830401488 -0.000015098216469597912988 -0.000011508043797823019698
784.000000 -0.000005733672583709882235 -0.000006533333998301358721 -0.000006976023931090202537 -0.000006360488008607417531 -0.000005644971649558487067 -0.000004512464573245324161
786.000000 -0.000007356338770641076898 -0.000008360958470095117130 -0.000008987065466693232711 -0.000008458311487607031914 -0.000007248863123686519694 -0.000005762511833332107570
788.000000 -0.000007559852516793008705 -0.000008574035355550721358 -0.000009215260737808450464 -0.000008704613712713041052 -0.000007428023473256660079 -0.000005919416953628961357
790.000000 -0.000012381496119203821497 -0.000014313124510183550760 -0.000015624656900569355665 -0.000015325977477245083716 -0.000012436788261307161847 -0.000009689606323582543215
792.000000 -0.000004600146866642025327 -0.000004962812791477807548 -0.000005154178557732830632 -0.000004528876803927225563 -0.000004276085737078068331 -0.000003591700187311996749
794.000000 -0.000002940024348028426036 -0.000003034620349348704982 -0.000003011523320039425343 -0.000002319050393049162110 -0.000002589241516417175542 -0.000002288150129309361635
796.000000 -0.000002417989277869832466 -0.000002556284775939950689 -0.000002547305815517347578 -0.000001892713762106592585 -0.000002242949423081888580 -0.000001924081737856568059
798.000000 -0.000004423173653972459354 -0.000004922716035508297842 -0.000005187778780388454615 -0.000004633719639522975060 -0.000004290987921543390899 -0.000003465527950017550587
