0.000000 -0.000000000000000000000000 -0.000000000000000000000000 -0.000000000000000000000000 -0.000000000000000000000000 -0.000000000000000000000000 -0.000000000000000000000000
2.000000 0.000307363846644546630064 -0.000242967225171727366911 0.000180510860465706463604 -0.003072828247982893872664 0.000309930621391164905047 0.000346229129457753526111
4.000000 0.000503006266851223370930 -0.000105571120228803363040 0.001391682724252495204770 -0.001095045578744210110558 0.000561330511633408133117 0.000606856642225983458454
6.000000 0.000124025620321979918904 -0.000693466986766401991861 0.001909505864783230411758 0.000671890026144148660471 0.000706577572212177388612 0.000745125727995945663466
8.000000 -0.000468649476029033213494 -0.001332808621241731231177 0.002752243849766610080121 0.002672947835216547569220 0.000955787376062384617589 0.000979617789680032637067
10.000000 -0.001744194691940373180550 -0.002809044691498728627682 0.003643644307865460257867 0.004943196611526251907365 0.001433822972933792736991 0.001428342503440494350511
12.000000 -0.002820604002381011613659 -0.003732136687797000390576 0.005468793730427018787155 0.007835602503022195616800 0.002127898262275267939059 0.002075399208396503953483
14.000000 -0.004234092185781129259736 -0.005304007161435583990461 0.007420118232223657690760 0.011857812138225183595797 0.003268727147067919825557 0.003136343585135146268955
16.000000 -0.005663962434116744971979 -0.007432031837136256549603 0.008645065417179818856308 0.016429549873039291790766 0.004897510030073298770148 0.004643376331858958122600
18.000000 -0.006083967778856112437746 -0.007952765680313752041930 0.011522922410935356601902 0.023291282912317849695949 0.007050680589698543609956 0.006646111001405267081077
20.000000 -0.007163803309891697210232 -0.009617902892377818563352 0.013403396283111369130525 0.031368478132461748153492 0.009607495946220378710279 0.009001133841504773552833
22.000000 -0.009960331978521478474287 -0.013664248191473606433566 0.013779088784391341909741 0.040076835290428727831546 0.012676611566827039254135 0.011811021169398481026058
24.000000 -0.013216453335544817160319 -0.019052489413318943883846 0.012892523050296558068117 0.049816010517559426717948 0.016177609614506510693488 0.015016157024724622118250
26.000000 -0.015958862945058244209307 -0.023147623388222186152641 0.011918787417859027025213 0.058904245193649722167617 0.019953417386371238156917 0.018489694002042682957621
28.000000 -0.019295594914104412936906 -0.028178767358374160606482 0.009840952804230702899435 0.069751162387977655443549 0.023591409938441103288920 0.021790721008836336919368
30.000000 -0.019023475390175854926600 -0.024907123570868567458136 0.014296433940378504984237 0.084237621205024648673998 0.027233717326899772176452 0.025109624588198049821575
32.000000 -0.019873943651179400149420 -0.025128956040625156920232 0.013798734586406152802240 0.097203867449157668745308 0.031008696076007719738543 0.028558844583764449870378
34.000000 -0.020167681469368928942609 -0.024548708512825000160884 0.013573315149916442834410 0.110232554944484084646916 0.034520136955886633611801 0.031760275905582766031721
36.000000 -0.021280869822330017449019 -0.024234847784842788315229 0.013365448979849108360196 0.125452843942291419887525 0.038374607026755838679044 0.035204670258871910426546
38.000000 -0.023300295406827917221726 -0.026010794650156258966955 0.012019003701757333124611 0.140244607942216686913284 0.041840171910890552875451 0.038319583004613418097950
40.000000 -0.026274330608927257829643 -0.028518679852090576820611 0.013075740749868608805984 0.158538089519151409456654 0.045853590544748266955022 0.041936192245357738206391
42.000000 -0.029678993040425726002152 -0.032549541906537741986494 0.013214964936704055517569 0.175052681962580808372465 0.049886413927635202270050 0.045609912510205907754113
44.000000 -0.032873763281602672026160 -0.036522735105786373333014 0.011805157316645208467887 0.189233122315665969193077 0.053659777370564036569345 0.049090818355665297167967
46.000000 -0.037177472958777602052294 -0.042611847235502986475097 0.007669894080706933341129 0.200303757275001242943446 0.057567282140478175100906 0.052669274814417452179605
48.000000 -0.041958568229133443028278 -0.049641378404174353600187 0.003467308526859992807989 0.212573814964323898335508 0.061539752685130108544875 0.056340989702748298095791
50.000000 -0.047114119778541477256972 -0.057424362210636126224728 -0.000175620799033304123959 0.221742751813742727806655 0.065130164841338045178532 0.059685326572689198498800
52.000000 -0.053024127759538165760578 -0.067921445914075659344711 -0.008001635613420264234175 0.227882059562667937946401 0.068161039746052268228915 0.062512728701742376058448
54.000000 -0.059768394690326263896107 -0.080191861401307351631118 -0.016351552007767729268739 0.233377494402076418600345 0.071129459771819114610736 0.065228908771808855049379
56.000000 -0.066296010951440317859884 -0.090973061108015743081445 -0.020062277053182395875064 0.244549109285662730206568 0.073327491239816161572307 0.067118851392908365771639
58.000000 -0.071765566609065203906859 -0.098438683561987358472400 -0.025722576805123343463011 0.233363528887379684251258 0.074844358651369541357568 0.068349883953842630046616
60.000000 -0.075622663627881822612231 -0.103154263179997054966641 -0.033165808296077133043855 0.203858151221423616883399 0.075527930392113903912410 0.068860826579391992696699
62.000000 -0.078934919590318161630726 -0.106881116934443978760960 -0.041489193269800037078276 0.172318511827669829106213 0.075152216833045779043054 0.068339768524416533157506
64.000000 -0.080486486380043839594656 -0.110036482842909441592916 -0.051485494591885935800057 0.140120817818908172114334 0.073201339741664275817534 0.066467769290911110635633
66.000000 -0.080118608643008668024343 -0.108036390075376659281048 -0.052326735979116363595143 0.117139350729522945249172 0.070758218554436688729758 0.064280814736298902412059
68.000000 -0.078253974115228774888209 -0.103592137164577338670490 -0.049410354168401095231733 0.096149602344733048342462 0.067786224494795210837594 0.061684090318076527370561
70.000000 -0.075777726900007127963654 -0.097759620409926500927966 -0.045159403914692336501346 0.078969694985988755919770 0.063808143849408430203773 0.058242215554131206156629
72.000000 -0.072542388712197383715541 -0.090784831249927921970055 -0.040074326865625974070095 0.058969872140750216604754 0.059718879441546982023148 0.054716056823543440801316
74.000000 -0.067928390697516327634276 -0.079915489207961043494066 -0.031532828031511611621696 0.043737831293160014944910 0.056193854421202317495077 0.051633201848557304380893
76.000000 -0.057684446133082448171514 -0.061288085687580998173196 -0.016771088062010355151932 0.030729687340897267333606 0.051579633577492546570031 0.047519748208013336265854
78.000000 -0.048546651619039433989133 -0.047257527172712567031798 -0.008941114048121864138485 0.014172996884531623498771 0.046790858494408726908631 0.043187808171339527041344
80.000000 -0.042153063272582294573887 -0.037865361051391752122974 -0.004820247339855931317798 0.001079825980176231815105 0.038519315709986685913879 0.035598690287155398959129
82.000000 -0.034573065638296082702219 -0.027241399358871553476602 0.001316725743052368042749 -0.004276888047967828884732 0.026700440503212328341442 0.024823384091889281327648
84.000000 -0.026791429848779441114104 -0.016389910923563989764151 0.008883543073494790803801 -0.003948569179847315722964 0.020022748383128907007089 0.018857283812117035803890
86.000000 -0.020224886860590769732671 -0.008991838967862930687147 0.012557493873497679870432 -0.002647300640124726229391 0.014639995159948886865875 0.014031906121988154192981
88.000000 -0.013927562387910036659222 -0.002722229428497517037672 0.015905984573818757882302 0.000841058223551409043194 0.010782654120223894231301 0.010504030160095541995835
90.000000 -0.008039544829725010083310 0.002475167303174615526101 0.017489364845149017041459 0.002263241585838973290307 0.007716121357697849035551 0.007677672703562071418459
92.000000 -0.002463482683769092039527 0.006175487157547590762185 0.017645016270510127665005 0.003126943000406123135404 0.004150759383855812112429 0.004407679963836952374834
94.000000 -0.000822073694412520854062 0.005301819637579702725050 0.014333770473595379077447 0.002057764008868068292962 0.000606187425083067055187 0.001170199197498082580374
96.000000 -0.000562356409099075437753 0.003570162584514495387328 0.010621487224126717821560 -0.000053937073511598611711 -0.001866445943125689520964 -0.001126569773847449452628
98.000000 -0.000063398400521574299203 0.003058954622310274071989 0.008567401878822109365097 -0.000475322737108175251679 -0.002818491411129535155478 -0.002050615118645011340087
100.000000 0.000124385111965482128950 0.002319205787254881474813 0.006038484177050174213364 -0.001246650372136119634334 -0.002261170455902145309118 -0.001650135810603192264984
102.000000 -0.000045819675718621372834 0.001117889294995731350180 0.002881951755527745184793 -0.002609870028953161728152 -0.001212713880066064540270 -0.000807842811849131020759
104.000000 0.000027448507847078462414 0.000117163295161458564059 -0.000622170782163122262562 -0.005160071473122478276363 -0.001294451403703373963683 -0.000925305430514994169643
106.000000 0.000192109435757301512350 0.000232946529844169341467 -0.001195544311103940776295 -0.005854031044534083010056 -0.001238265677615838118719 -0.000900654219795648234605
108.000000 0.000430714778900465348945 0.000635607616622135785864 -0.000796846752619778924548 -0.005697741084996392826878 -0.001230903521057477752187 -0.000925907568473707896090
110.000000 0.000682396111857756283194 0.001008830819317093827059 -0.000471038670775015405612 -0.005574580189902623994502 -0.001353423432481900418045 -0.001072457988252464421847
112.000000 0.000875767325587460156167 0.001289642320199340264769 -0.000239125275035641991729 -0.005463244888087963324619 -0.001291813382935947437241 -0.001050415450915368918358
114.000000 0.001039889858983267332398 0.001524945620338351206374 -0.000053395882767321081058 -0.005350912528597734363345 -0.001250997373910381609691 -0.001048270257454813128573
116.000000 0.001260992541720184177689 0.001797361835176706145942 0.000149058309250327773862 -0.005223711886026289469287 -0.001390699875660559052190 -0.001212370413906630264855
118.000000 0.001479353570662216140960 0.002040451773308405141599 0.000293016117356972936436 -0.005168203423425677019154 -0.001620224446199454958195 -0.001446819259262682733080
120.000000 0.001667712709686552594035 0.002223087490639110395951 0.000367477924278088966415 -0.005173940449929114067384 -0.001858704586254375209012 -0.001683390624409828850022
122.000000 0.001797770549828310885851 0.002341317038394144078167 0.000387903005398730063233 -0.005213880960282267496009 -0.002020208831820993929107 -0.001842477713547332465391
124.000000 0.001868360818258103968337 0.002396144914893331458183 0.000356773467178850246188 -0.005288373332422921513363 -0.002084869212537050504191 -0.001903915910193575188394
126.000000 0.001925690421117508353138 0.002439319479781694964549 0.000324804642440422626504 -0.005357746470332395462288 -0.002135168547982884551528 -0.001951493216572984697177
128.000000 0.001974942528096177395136 0.002476777451761783249012 0.000297071151568870344805 -0.005419696961362718487520 -0.002178391797877516234544 -0.001992740360686107072702
130.000000 0.002017515122368110109391 0.002509842236364708597390 0.000273514769928797512894 -0.005476155245061214288382 -0.002215934881237727020753 -0.002028803154367502751404
132.000000 0.002054675139310976113988 0.002539588179626016926915 0.000253837307607649830931 -0.005528699462067527235776 -0.002249117991118156859726 -0.002060813696554696615448
134.000000 0.002087485656925620707003 0.002566832385762310344418 0.000237575798950096363053 -0.005578649962159085672064 -0.002278984800179149460692 -0.002089677671940872154960
136.000000 0.002116827495773829052872 0.002592197961989975169700 0.000224207182366241956776 -0.005627068617359226067320 -0.002306346431090974466449 -0.002116107922045831497143
138.000000 0.002143430332477025499621 0.002616167781113341080784 0.000213210041350400940786 -0.005674823051689138926623 -0.002331839773959865861480 -0.002140674271190248171420
140.000000 0.002167904382970236264183 0.002639130599640521213090 0.000204115519617660443009 -0.005722586083334259624000 -0.002355975934435550808027 -0.002163843459514038294889
142.000000 0.002190767541488468795469 0.002661416633709377289885 0.000196527961415409764675 -0.005770886228629464563544 -0.002379168903804404662516 -0.002186001793775543475262
144.000000 0.002212442369594740023547 0.002683284716431969061518 0.000190099227204464522314 -0.005820132228889095607482 -0.002401755268252028438503 -0.002207469951320440923470
146.000000 0.002233290403086141476252 0.002704967866114974840708 0.000184564916449508664752 -0.005870636016390868086590 -0.002424014763188396537341 -0.002228519058418033851193
148.000000 0.002253611328246322900032 0.002726660815674054015589 0.000179699356273425192186 -0.005922671641287835346545 -0.002446178938424021891140 -0.002249377157957124697546
150.000000 0.002273656906631326204971 0.002748529984420528590044 0.000175330654190665658669 -0.005976443678686704612246 -0.002468443609650101955300 -0.002270238993843862185251
152.000000 0.002293635438391251717138 0.002770717502702750318494 0.000171312039634939443627 -0.006032137919704460074510 -0.002490972855898532754837 -0.002291269378959257495276
154.000000 0.002313725203682068590205 0.002793350795663634370675 0.000167535916346806012297 -0.006089916959218510950080 -0.002513906737984726493668 -0.002312609499052101919014
156.000000 0.002334077825900286035088 0.002816543947065439004035 0.000163919895531930702752 -0.006149920297434594874952 -0.002537370012495533851127 -0.002334384956081558652741
158.000000 0.002354819736606519019195 0.002840391941495132126227 0.000160387255740652702419 -0.006212300510829636863985 -0.002561467733666953575794 -0.002356701759273734271549
160.000000 0.002376063432206745092840 0.002864986928510870976133 0.000156884825822888382537 -0.006277194198197996906352 -0.002586299521874653537662 -0.002379659355463513772944
162.000000 0.002397907112125149346055 0.002890413393397041168231 0.000153370196411586244773 -0.006344740574208423619651 -0.002611951444586038933310 -0.002403343517690885444704
164.000000 0.002420437634152268133181 0.002916746895651010831191 0.000149802298518202114432 -0.006415080985363580748371 -0.002638506290267885346507 -0.002427835689144261770850
166.000000 0.002443737660888390967467 0.002944066209234590981991 0.000146155052870368618251 -0.006488371572376750752442 -0.002666044542458424326109 -0.002453214257656369332722
168.000000 0.002467879781696338380853 0.002972439082725963997028 0.000142393636390657012895 -0.006564770997722650311412 -0.002694637920202552338472 -0.002479548925594184452526
170.000000 0.002492935076968556037252 0.003001936393402466173030 0.000138492320003553130584 -0.006644443879704309274814 -0.002724364744035238320580 -0.002506914457355402092026
172.000000 0.002518975585443576116484 0.003032635197753014589389 0.000134435218111920231103 -0.006727566156620803927702 -0.002755300958299911236182 -0.002535382835766083163553
174.000000 0.002546067518913530149105 0.003064602927240709599049 0.000130195960240798031806 -0.006814324170042594663865 -0.002787521074518668415254 -0.002565024502925488530947
176.000000 0.002574277781244296934432 0.003097911988304897189239 0.000125748429577029048566 -0.006904923048664210125103 -0.002821102628903280826189 -0.002595912207350812000300
178.000000 0.002603679562560933836990 0.003132643622778903593623 0.000121075102918584098202 -0.006999572009972294603375 -0.002856128761235475575081 -0.002628123433802828298744
180.000000 0.002634343913910605107509 0.003168877036649706338545 0.000116154586311095024405 -0.007098496606732639969961 -0.002892684817694561767720 -0.002661737572289701262568
182.000000 0.002666344917616773110142 0.003206694984329678047019 0.000110957906818820163609 -0.007201945095145980899054 -0.002930858363796172601223 -0.002696835786061515215228
184.000000 0.002699761093181650070671 0.003246184539619831506407 0.000105464083958309738013 -0.007310177431076514062425 -0.002970745985722659642664 -0.002733507319764805817280
186.000000 0.002734673892629268642657 0.003287440312434913424616 0.000099644873931754800287 -0.007423473517768350640744 -0.003012446968963262711877 -0.002771843999108536318182
188.000000 0.002771170864868077645532 0.003330560312438161918447 0.000093472196276301176723 -0.007542127775938886960483 -0.003056066920939159211462 -0.002811943175981408173103
190.000000 0.002809343264811104638051 0.003375647168095687392086 0.000086913215721826631824 -0.007666463042382264461705 -0.003101719243772422997946 -0.002853909255094356188509
192.000000 0.002849286611282240023330 0.003422810268250028181702 0.000079933109956536018271 -0.007796819362462230340594 -0.003149524832545876756873 -0.002897853609963828291907
194.000000 0.002891107781376538090473 0.003472170679469745342705 0.000072497452895796149919 -0.007933568373772596424298 -0.003199613602887339033204 -0.002943895707513919171583
196.000000 0.002934916457037835615940 0.003523852726050370927358 0.000064563971068170290216 -0.008077107144013884187927 -0.003252123105810668379778 -0.002992162134775719264240
198.000000 0.002980830544204935306923 0.003577990482172181165021 0.000056090191691351350156 -0.008227861067817787352197 -0.003307201881473517506016 -0.003042789437202856120401
200.000000 0.003028976769168509330932 0.003634725780281794146886 0.000047026431045666479327 -0.008386288887885798293276 -0.003365009459084870348244 -0.003095924277770194330689
202.000000 0.003079489874713474319851 0.003694211254003019768294 0.000037322751405720156024 -0.008552881255457122494645 -0.003425715308442718164822 -0.003151722421973893791675
204.000000 0.003132516721000816461995 0.003756612219501446418152 0.000026920138452189871028 -0.008728165987543324427778 -0.003489504825432987195760 -0.003210354244311884423790
206.000000 0.003188211905424534649278 0.003822103520470856389407 0.000015763403057659284813 -0.008912717866410379760622 -0.003556573634910235436751 -0.003271999505808395429518
208.000000 0.003246741852138709891890 0.003890869056325961614778 0.000003774002007483861609 -0.009107154439038221693803 -0.003627133538890885740974 -0.003336852821245735005451
210.000000 0.003308286232386233646080 0.003963110643443104944006 -0.000009114632045773353824 -0.009312134400118101534849 -0.003701413334239879882742 -0.003405124438782404332204
212.000000 0.003373035888988276144451 0.004039040390905345237482 -0.000022986569683259055390 -0.009528375517860569049455 -0.003779658484248737439215 -0.003477039744881497106144
214.000000 0.003441198057934440144440 0.004118888199621685737573 -0.000037926433032535558946 -0.009756642875553240418229 -0.003862133557494012991995 -0.003552841849681893579560
216.000000 0.003512992949937913424174 0.004202896420910907926416 -0.000054035140546553304681 -0.009997772705013752495007 -0.003949122075694693791148 -0.003632791119321323453084
218.000000 0.003588658338384729737380 0.004291328211625682759189 -0.000071410341486941150604 -0.010252650928299356092310 -0.004040930622805929961494 -0.003717169173702731654191
220.000000 0.003668447485045918388114 0.004384459546731824149124 -0.000090169830953195056599 -0.010522247762933719869571 -0.004137887443119157501736 -0.003806277452564478351593
222.000000 0.003752634051347652176245 0.004482590523663168222135 -0.000110433758760371378196 -0.010807595681778079874102 -0.004240347826468743482053 -0.003900442125824381787991
224.000000 0.003841510459476371250331 0.004586038988982256946192 -0.000132333270206403308313 -0.011109806106489428234596 -0.004348691609756084180960 -0.004000011962343107477236
226.000000 0.003935388132101027766629 0.004695141098244441126008 -0.000156011665623862432308 -0.011430078889599395650101 -0.004463327374421580118202 -0.004105362076922722085193
228.000000 0.004034601828988292580858 0.004810258347678359608368 -0.000181618284276524583455 -0.011769698938282230002428 -0.004584692756111102135419 -0.004216894090749663537299
230.000000 0.004139508466105341899510 0.004931773077181653835988 -0.000209315909708008234371 -0.012130037122403345903332 -0.004713257675330278020920 -0.004335039293720832978551
232.000000 0.004250488399308118871167 0.005060090917673598295834 -0.000239281290656995882611 -0.012512575031140327902479 -0.004849523767472542663814 -0.004460257966262947716685
234.000000 0.004367949202671249017693 0.005195644612170683199204 -0.000271693962609811240361 -0.012918875146829411279525 -0.004994027678085884158765 -0.004593042378222818820921
236.000000 0.004492324280594768570740 0.005338891654334019382100 -0.000306753220295996446593 -0.013350617813885405638086 -0.005147341287856389488442 -0.004733917117333981752769
238.000000 0.004624078356301132911033 0.005490317873074353899332 -0.000344672966497299912945 -0.013809591782556571160079 -0.005310076262322038602448 -0.004883443178861271612157
240.000000 0.004763709324755208487923 0.005650443063378319738521 -0.000385684968497933830869 -0.014297705884418790769907 -0.005482883023333102838481 -0.005042216973048099099008
242.000000 0.004911754878397125816114 0.005819825875667100287258 -0.000430040713548664351156 -0.014816993026884857712067 -0.005666458523259108870374 -0.005210877607354905127757
244.000000 0.005068794785248704332092 0.005999062924631380459839 -0.000478033946223431092590 -0.015369641697789654041784 -0.005861548790591247261317 -0.005390109236867759480438
246.000000 0.005235462529061708260303 0.006188804588341893439529 -0.000529999230098051905130 -0.015958001348410102288033 -0.006068958451495168673895 -0.005580649919666501833360
248.000000 0.005412452926822322769873 0.006389759957472629023356 -0.000586335912696467234477 -0.016584626785383475150448 -0.006289560894655734507586 -0.005783301178389140505265
250.000000 0.005600536076817876421363 0.006602712528694575262744 -0.000647527026070066741813 -0.017252317334954674760139 -0.006524314447738095538998 -0.005998942807804200430533
252.000000 0.005800565946806519185275 0.006828526933920590728799 -0.000714164960800983900438 -0.017964174798500379820476 -0.006774279178318785323010 -0.006228548791939157898423
254.000000 0.006013496017079927001558 0.007068164647446082901605 -0.000786973109504142246708 -0.018723667621384765952230 -0.007040641540760104490071 -0.006473209870652454379913
256.000000 0.006240388783477722293991 0.007322690942900189105258 -0.000866825815308985359389 -0.019534707646702089561819 -0.007324739116400238655991 -0.006734156496766913885255
258.000000 0.006482422263768160795860 0.007593277664561476868188 -0.000954763191452841718763 -0.020401730700086322112252 -0.007628087737177476589101 -0.007012783760738219678010
260.000000 0.006740890552770184042386 0.007881198320724583025743 -0.001051985073277779316608 -0.021329765071510221885465 -0.007952404591069344233500 -0.007310672312439147300933
262.000000 0.007017194632520885530513 0.008187809198282901268495 -0.001159832233116104074910 -0.022324489096635546231395 -0.008299625549291381187977 -0.007629603763113020249709
264.000000 0.007312817582949595815456 0.008514512218625990697118 -0.001279740370751954224929 -0.023392255495177802226969 -0.008671907405117123407434 -0.007971561725634339345969
266.000000 0.007629293247335437386236 0.008862708540350304822764 -0.001413165962836778052555 -0.024540067865049811773881 -0.009071613094009922315109 -0.008338716914682823763694
268.000000 0.007968164117822595232665 0.009233746228413124493284 -0.001561484770048904768477 -0.025775495441800688745104 -0.009501271642230191272205 -0.008733388636862893933399
270.000000 0.008330937587905370284025 0.009628869115316688459538 -0.001725875042130332187584 -0.027106540674311105365568 -0.009963514945662570523877 -0.009157984694987601412275
272.000000 0.008719049840547008281555 0.010049181789985329668613 -0.001907206896212514622702 -0.028541446536976204650937 -0.010460995063229575063879 -0.009614923589016810198671
274.000000 0.009133848214640770402095 0.010495651006689254991500 -0.002105963038813172920338 -0.030088487144854722532550 -0.010996290677950623301817 -0.010106547563105755180302
276.000000 0.009576601460249937677882 0.010969156540443905645255 -0.002322208396798196815281 -0.031755768656457711296426 -0.011571821357440722349841 -0.010635044041653544943937
278.000000 0.010048554284090634169946 0.011470609485987610931534 -0.002555622200337394692160 -0.033551051527332523272129 -0.012189786493143903514658 -0.011202391470956968647088
280.000000 0.010551035462998568578707 0.012001163518216607234423 -0.002805567569525441694311 -0.035481654577315023535444 -0.012852153974255179844088 -0.011810352813641606870010
282.000000 0.011085611458005606086430 0.012562475519149702424260 -0.003071228296594529817709 -0.037554422578104304508706 -0.013560706559566315654308 -0.012460524238085565751355
284.000000 0.011654287165242468299331 0.013157008926836974774255 -0.003351806141144347220978 -0.039775827006040799516118 -0.014317163247420886668104 -0.013154453521772220894737
286.000000 0.012259727224933967063003 0.013788327734914581843007 -0.003646768855583687549832 -0.042152183376974960982153 -0.015123369346573134128220 -0.013893821919009603435557
288.000000 0.012905480375556376351764 0.014461336092988993223818 -0.003956187714343541682316 -0.044690046535300745333963 -0.015981557373014390610599 -0.014680689441936900507812
290.000000 0.013596148666533013418811 0.015182359050653924936736 -0.004281191617214289389659 -0.047396783820235245665575 -0.016894666345738482138295 -0.015517791438518219529485
292.000000 0.014337428678557952166361 0.015958978141986313731282 -0.004624500354606425091275 -0.050281338174680334507372 -0.017866696827051178897428 -0.016408864896599331673066
294.000000 0.015135879840595934525682 0.016799480336420234000139 -0.004990780001215272890236 -0.053354933742506285843099 -0.018903028747819041605061 -0.017358937903478244973998
296.000000 0.015998053120235746632494 0.017711574473053749712026 -0.005386215398486364318298 -0.056631051502815256404322 -0.020010498971604125106882 -0.018374396264632289477170
298.000000 0.016928478181317544587481 0.018699989636605570536565 -0.005816080406744473553504 -0.060123318189072724737620 -0.021196807708872240222364 -0.019462425870089412188735
300.000000 0.017926449097598353560334 0.019763168485621561420995 -0.006278929221737712326745 -0.063839551056526180894402 -0.022468586279002115274617 -0.020629195113890413937341
302.000000 0.018983352636001152996537 0.020891118887784703578303 -0.006758354604758158752642 -0.067772248694967507365305 -0.023827742307100861079983 -0.021876388701653887852716
304.000000 0.020083686602701562168294 0.022067846478858777620191 -0.007217401257769998947078 -0.071889936231785023235119 -0.025266954351195164418797 -0.023196906703052810189147
306.000000 0.021209812028362893393529 0.023278255186076124427785 -0.007602157431216670889496 -0.076135548685491910569922 -0.026766625977285310455933 -0.024571971425908001318561
308.000000 0.022345934723995038856392 0.024514538983436390262582 -0.007853839183420162350924 -0.080432391399632804929176 -0.028295478561743171719289 -0.025971807912623833675125
310.000000 0.023478513452531993982442 0.025777015913477089453787 -0.007921893113647354711659 -0.084692272442377120045265 -0.029814979747827190931231 -0.027360103981963628666518
312.000000 0.024594577696509831860050 0.027067071143697159912866 -0.007775089992343761635674 -0.088822518037978581695313 -0.031285484182101128136644 -0.028700086178641805861878
314.000000 0.025681762856762015839740 0.028380120243211463121336 -0.007406283661290434354452 -0.092729392922435871504661 -0.032671323014164144193927 -0.029959448413492656415613
316.000000 0.026734269785944012737255 0.029714863376530144950527 -0.006820029134492592431949 -0.096314940348492542043779 -0.033943662686460533695065 -0.031113001872051102708605
318.000000 0.027759635411047901831783 0.031091940971318385300570 -0.006008825713089491725449 -0.099469051693731505570106 -0.035080911266140928084223 -0.032142813535417112669190
320.000000 0.028774928473650356747227 0.032553839803888560966438 -0.004943025432262054472132 -0.102063947863106949109913 -0.036066433915619325323298 -0.033035611929612275494694
322.000000 0.029794600983223399476296 0.034144767573773632252099 -0.003581956889004362602075 -0.103956301355014740783744 -0.036884511567953075228399 -0.033778479031794234055397
324.000000 0.030820325413663841873646 0.035887618030564005788818 -0.001900700057625575277453 -0.105002695326665423936063 -0.037517587965618368062160 -0.034355887576111750203456
326.000000 0.031835832380674833341772 0.037763888516204296985634 0.000076017399868201011013 -0.105086277387172993824649 -0.037946497982849637653491 -0.034749845095355183510755
328.000000 0.032805407031210653823194 0.039701292066518345524884 0.002258289043953618218524 -0.104134752509015368615586 -0.038152361148800266466008 -0.034941903375668846576385
330.000000 0.033675840595616041150961 0.041574853926007779292284 0.004506657563780861255887 -0.102113347070266674565531 -0.038118253648170639935611 -0.034915056138785101336186
332.000000 0.034382337025081755044198 0.043218810704063803651565 0.006659265573069234576964 -0.098998649644875050257475 -0.037830221360303159516825 -0.034654978653184571879553
334.000000 0.034858495082292460798268 0.044451265940672113341492 0.008561392597568653548001 -0.094754281041090820947304 -0.037277992574619299437355 -0.034151081321796880607700
336.000000 0.035047456317356284749565 0.045116005486493332421460 0.010101469046855642702765 -0.089334188593390984056697 -0.036455599586364989539433 -0.033397696774949130193999
338.000000 0.034907527605669758097306 0.045119057080328511810663 0.011230264686042849484049 -0.082729641580291946034720 -0.035361746928635293119036 -0.032395027835688053330365
340.000000 0.034409429135148654477216 0.044426877200538360257465 0.011931829992976811585792 -0.075047388916903060018804 -0.034000299606363020010757 -0.031149637263393190056426
342.000000 0.033532818814225817671826 0.043038763874129921938039 0.012176754645698466619774 -0.066560311509907613136683 -0.032381727414401408060574 -0.029674885564913374563778
344.000000 0.032269610699062263592385 0.040971797078016979065662 0.011917451237449491405207 -0.057665650107449402395066 -0.030526795357695493682293 -0.027992781192480407914669
346.000000 0.030630948363566556924553 0.038268250225071367975893 0.011129459611911701397147 -0.048771352526787783987494 -0.028471014472638802444981 -0.026136577840500604258400
348.000000 0.028650126546695322410363 0.035008163599704669732837 0.009852132480323745611361 -0.040205987987941047001605 -0.026264197037590374800287 -0.024149746261677408620816
350.000000 0.026380793395171769910590 0.031313375286616221271352 0.008195777765708208220663 -0.032200619331768376429892 -0.023962847155991839898093 -0.022079666729154848875405
352.000000 0.023895525417931842704355 0.027342889406431137439002 0.006317023768885853159116 -0.024922007176073780049252 -0.021619475877454059908889 -0.019969451144837422479350
354.000000 0.021281451746706831623657 0.023275908679281382546167 0.004377499211967119177591 -0.018517670294027899213773 -0.019273874806500751466487 -0.017851703233133110054753
356.000000 0.018627482281889162080146 0.019282772927822499492434 0.002507189725566764167825 -0.013130727020480596409224 -0.016951901951284733399694 -0.015748454957511742041687
358.000000 0.016008643921487587108432 0.015500166561144619603585 0.000793105386513028184046 -0.008859106615724240962884 -0.014675280281486138833635 -0.013680010893055979254163
360.000000 0.013480612409893684422446 0.012028261105232963129597 -0.000704410786601193509605 -0.005693750297470450208448 -0.012475179024864002652606 -0.011676328773384418713288
362.000000 0.011088320032077532070747 0.008944480093326124051090 -0.001929456407789437166755 -0.003499562571528403928656 -0.010394287988670574546246 -0.009777731251892123054414
364.000000 0.008877779968173927019337 0.006311351140018375133200 -0.002829778505553587515664 -0.002061555370127387577794 -0.008475675934868334010508 -0.008024131281545594449045
366.000000 0.006898534372652738964893 0.004168994540731056804017 -0.003377997055186332704679 -0.001158754397867422505572 -0.006750885966116681319305 -0.006444413379088982825327
368.000000 0.005196665210997624372025 0.002525842596327570153958 -0.003585717589661427742720 -0.000611196292052093820106 -0.005236846298842547792196 -0.005054114878004841750203
370.000000 0.003803199417799195576617 0.001356672512395862241139 -0.003498152011023494649400 -0.000288669596036018416638 -0.003941513763108651577372 -0.003860589256023451779076
372.000000 0.002721355881464903193195 0.000603759810960253747239 -0.003181488377444982064424 -0.000101976450034962801161 -0.002870333556434117184414 -0.002868642639788482849583
374.000000 0.001923062316177403825029 0.000183660950542633387558 -0.002711205430589899625232 0.000008635013966797265065 -0.002025907913770958607147 -0.002080336845992951811529
376.000000 0.001359716468824259541850 0.000003058980884483585473 -0.002161568803662750060113 0.000082848725225456054016 -0.001399862709820301259409 -0.001488104364815694006033
378.000000 0.000976341457245405637023 -0.000026433371934090624993 -0.001601276640535658369463 0.000143005307390966552878 -0.000964306884535256082086 -0.001067407841293043510925
380.000000 0.000720925349322836363578 0.000019937163494341938113 -0.001091911011699433402614 0.000192489586881325498973 -0.000675220179089172883695 -0.000779648898159505726255
382.000000 0.000550449201455767921608 0.000087104482999277182162 -0.000677623526686787960166 0.000222470113624509055732 -0.000487439603200368878552 -0.000585093146107101857480
384.000000 0.000434108715527848883567 0.000144682789056474708604 -0.000373289801799873359033 0.000226055071008228312566 -0.000366366199120973692459 -0.000452980109619842462657
386.000000 0.000352010705733122697229 0.000182324554432475852877 -0.000168384549190802771486 0.000204808217488909973577 -0.000288892503274244827078 -0.000362420411622435209315
388.000000 0.000291500518566716623845 0.000200059419482596651928 -0.000041511839072592307087 0.000165857481280926429218 -0.000239293369340175130161 -0.000299014658577573992984
390.000000 0.000244359738119710734328 0.000201396186048560896665 0.000028797254951976341988 0.000117216713202714385689 -0.000205988079001197802636 -0.000252193341567410968165
392.000000 0.000205391764449168191245 0.000190586886092479414374 0.000060413348862159950490 0.000066083444281835615692 -0.000180454506186236620507 -0.000214334661285486599742
394.000000 0.000172023209374288946032 0.000172279910430833379034 0.000067757345013033654091 0.000018227176089165550611 -0.000157707718977101798985 -0.000181143765510554153415
396.000000 0.000143644116867464147246 0.000151078076483042439545 0.000062012998945640862331 -0.000022458479518400831048 -0.000136486420937972880796 -0.000151669514604521783610
398.000000 0.000120436728863817360796 0.000130650750070077667584 0.000051123959349356206414 -0.000054076625236065878398 -0.000117706331735207040626 -0.000126732803481225298099
400.000000 0.000102244253060267936803 0.000112978697874468840545 0.000039604846010045041487 -0.000076841548101085749550 -0.000102238904723167835210 -0.000106864636386083761903
402.000000 0.000088311235897774176262 0.000098548150166503491816 0.000029480975077250545996 -0.000092066860544134468424 -0.000090008058819311166383 -0.000091587115228960205805
404.000000 0.000077686269447559846459 0.000087058851861328186974 0.000021319143144949026259 -0.000101473212708244419191 -0.000080408272343039186177 -0.000079935753963247506838
406.000000 0.000069517090763499328671 0.000077996287985701505635 0.000015103853593964721439 -0.000106547839742810425347 -0.000072779991205138830010 -0.000070971699430181207457
408.000000 0.000063162626299504204459 0.000070846502199999229635 0.000010566285317138120528 -0.000108456289584997006776 -0.000066632205696362580027 -0.000063995099946074785737
410.000000 0.000058150292181258351717 0.000065190083560456206849 0.000007402789194804866864 -0.000108160996623706448494 -0.000061618788209353910911 -0.000058503159057205325925
412.000000 0.000054136283383733008689 0.000060678168621318125196 0.000005290345157026015131 -0.000106333068385288913717 -0.000057472296452673974504 -0.000054114262868042265235
414.000000 0.000050827138018481951163 0.000056984191921761694869 0.000003954068086586392050 -0.000103519434001613384248 -0.000053996284212935761278 -0.000050547107042118220399
416.000000 0.000048033082192038073163 0.000053881746128852476760 0.000003135801112450984394 -0.000100087344418716344763 -0.000051019656901174102390 -0.000047571625633779574048
418.000000 0.000045593495952403150753 0.000051166876632315266089 0.000002618155992815890728 -0.000096337294245160540922 -0.000048397120100751735801 -0.000045007413201687151592
420.000000 0.000043395871666114823977 0.000048727297141350691821 0.000002328058849835435700 -0.000092349186812944433333 -0.000046021794544250039984 -0.000042724162316827879080
422.000000 0.000041366933532647780691 0.000046467641606146542585 0.000002141673744869314799 -0.000088263142444013336241 -0.000043822749985375183176 -0.000040636969431290066918
424.000000 0.000039468640611851870585 0.000044338083152385254077 0.000001995249992740330566 -0.000084196825424575225875 -0.000041766890998172269162 -0.000038703121157851734882
426.000000 0.000037672093928339269418 0.000042309245138982793473 0.000001896957892721520813 -0.000080201124348942303050 -0.000039825279103569844591 -0.000036887908509989421639
428.000000 0.000035946885179325791123 0.000040337015174321919520 0.000001751711711416079438 -0.000076365981103574079206 -0.000037972434603514954813 -0.000035163455988625854558
430.000000 0.000034279909711751771787 0.000038422631897494669299 0.000001609830265741296148 -0.000072649280567459891792 -0.000036202209376471025421 -0.000033520170542276966831
432.000000 0.000032678630429253235890 0.000036578657163122274142 0.000001479867525683410161 -0.000069046105652986470755 -0.000034503146278738428497 -0.000031945848356706925712
434.000000 0.000031150797908506341481 0.000034820284831108672509 0.000001355978320781466605 -0.000065573686902416691564 -0.000032884149468003538318 -0.000030447126570219889619
436.000000 0.000029673444418263635958 0.000033105836992543221959 0.000001207092478910583163 -0.000062323932130396787516 -0.000031335617170918087697 -0.000029014018941773070398
438.000000 0.000028259016313437263152 0.000031490483268075037965 0.000001120447100422850778 -0.000059180180845055896063 -0.000029850281247187208412 -0.000027639695047062477328
440.000000 0.000026897113555626524527 0.000029914344407415996386 0.000000996639854044830763 -0.000056272877513863174461 -0.000028423809707231167395 -0.000026320015542358302817
442.000000 0.000025587343416798149565 0.000028416038348397998023 0.000000895133202024527497 -0.000053517750693961612838 -0.000027048710388695431723 -0.000025048279667941486011
444.000000 0.000024338483502946799526 0.000027002944863384226062 0.000000803621183344779251 -0.000050941662351611944877 -0.000025739328687497706156 -0.000023837897892305397358
446.000000 0.000023129534795698504361 0.000025641727793548104841 0.000000714815971134986599 -0.000048518689565190706401 -0.000024485248466970803996 -0.000022678482655263695840
448.000000 0.000021984884660559504259 0.000024365618285433018767 0.000000651624475928392038 -0.000046201510562871366211 -0.000023285338245186028966 -0.000021568730792602990634
450.000000 0.000020901003012322357655 0.000023182883985155162276 0.000000645046628593667624 -0.000043976133466652498152 -0.000022146664548096165988 -0.000020515371202582543154
452.000000 0.000019887989878987593744 0.000022057161312553368076 0.000000602292149943385634 -0.000041880921469754197933 -0.000021062530619368186312 -0.000019512789109587473212
454.000000 0.000018923550072196791705 0.000020996580780488365329 0.000000592423155665206701 -0.000039832832406138559398 -0.000020027873450577009180 -0.000018555191864263098547
456.000000 0.000017998111510494420892 0.000019979802499242642301 0.000000581863551645841990 -0.000037902825460722152663 -0.000019048960501025176189 -0.000017649148412588926756
458.000000 0.000017127853423062559389 0.000019038024493938679688 0.000000610702317376215689 -0.000036041304924296786434 -0.000018124297858650489023 -0.000016792542861886785151
460.000000 0.000016326322914031423837 0.000018164192072570743209 0.000000614718018277009365 -0.000034245500737479355206 -0.000017251324477652728740 -0.000015983488847311957400
462.000000 0.000015537802092669569473 0.000017305835720262400168 0.000000612946252780647642 -0.000032610888500325418179 -0.000016415212261976175280 -0.000015209279599123167500
464.000000 0.000014792327673521079985 0.000016484950094761013521 0.000000576369264976819990 -0.000031044247958315287388 -0.000015618378514161652878 -0.000014471316589722151258
466.000000 0.000014067369448521696392 0.000015662289997499274235 0.000000512336290870279220 -0.000029513703939065028420 -0.000014870469445622999706 -0.000013778025737127424805
468.000000 0.000013389406896097316146 0.000014913413572900206195 0.000000519308677473490545 -0.000028024911506520681307 -0.000014147949391599822796 -0.000013108758947983022408
470.000000 0.000012738552762545421302 0.000014160733209323796429 0.000000450309580449559903 -0.000026650392108968843486 -0.000013462659453295805991 -0.000012473702908467504231
472.000000 0.000012108283805540793465 0.000013469184030287009092 0.000000445782234677036098 -0.000025320491112022612415 -0.000012801198223542380978 -0.000011860817157396233003
474.000000 0.000011524856307011792795 0.000012802708303804570753 0.000000403541884819837132 -0.000024085902710005955440 -0.000012182010405606143500 -0.000011287918932736657377
476.000000 0.000010970090049014616417 0.000012207666367893578780 0.000000407715335492045376 -0.000022867082692481347953 -0.000011587938393682982447 -0.000010736762640353844897
478.000000 0.000010418611128922414857 0.000011585393427142897898 0.000000355898531636913794 -0.000021749239078092217904 -0.000011022897138366702109 -0.000010212895918370580191
480.000000 0.000009900351738882598332 0.000011001223783498195342 0.000000294078285776294072 -0.000020745345712794660098 -0.000010475890351046186359 -0.000009707406969383091600
482.000000 0.000009431410420586417136 0.000010487500391128082609 0.000000306298328085242173 -0.000019768109081382680912 -0.000009975519191323045114 -0.000009243207090885361996
484.000000 0.000008964012817759477134 0.000009949030534859272537 0.000000235092095741318840 -0.000018820359448103269950 -0.000009483196942314711095 -0.000008787243096650842293
486.000000 0.000008544240123743901855 0.000009490862678679863775 0.000000269800183099797656 -0.000017880405565405736945 -0.000009027263234975150269 -0.000008364723329163673831
488.000000 0.000008117179835632561439 0.000009016569966267580985 0.000000268074955743327334 -0.000016911173148369456687 -0.000008582146612876270469 -0.000007952811704673068058
490.000000 0.000007723451412498444344 0.000008561712704321454128 0.000000209903074994239413 -0.000016156244061689897383 -0.000008167317275389239395 -0.000007568550368234626649
492.000000 0.000007344715906978025804 0.000008148459399030092321 0.000000227929705049397657 -0.000015404467799635051346 -0.000007779897539534832176 -0.000007208614379207815792
494.000000 0.000006979530693742852239 0.000007731127067298637994 0.000000220652840916907434 -0.000014630711393398391452 -0.000007408632297931975365 -0.000006865130265706228669
496.000000 0.000006652783710693907659 0.000007383016055442283953 0.000000250358507103553017 -0.000013942761036213917588 -0.000007060919217794456089 -0.000006541946854678718946
498.000000 0.000006315699840971350063 0.000007013469549430003297 0.000000226980559215748954 -0.000013257248124609600687 -0.000006720081910096279760 -0.000006226106601452793429
500.000000 0.000006005321798736489643 0.000006646976802272855120 0.000000139166852056786343 -0.000012696918412029828920 -0.000006386303351281586082 -0.000005917267572634010699
502.000000 0.000005722194691427181101 0.000006334128967350640928 0.000000113804857979193383 -0.000012129099243971078756 -0.000006085850212083854421 -0.000005638501005671723847
504.000000 0.000005450814933565220253 0.000006037189745235174408 0.000000136846599429440657 -0.000011497556331132322561 -0.000005804461502052502040 -0.000005377851636651766551
506.000000 0.000005195361985217489166 0.000005761834715243496008 0.000000164536511127326270 -0.000010915804946829732829 -0.000005536812355423299745 -0.000005130214831045401535
508.000000 0.000004953460606223424972 0.000005483432280287346695 0.000000111885433413662775 -0.000010454016083659738916 -0.000005273444937372903760 -0.000004886242833307759850
510.000000 0.000004711284894481222866 0.000005207432734044652032 0.000000100417693670861150 -0.000010004431769998063821 -0.000005026805721154116574 -0.000004657913085353680981
512.000000 0.000004482298006571745567 0.000004968703258190224253 0.000000097808162238982819 -0.000009490803652098955422 -0.000004785494990579893157 -0.000004433508319506442895
514.000000 0.000004275205740765160672 0.000004748500718619985554 0.000000137680020630270432 -0.000009014848944038616392 -0.000004561493505256498432 -0.000004225500856823564378
516.000000 0.000004081184186868624676 0.000004539024113691237106 0.000000176834479648782740 -0.000008519102875460773898 -0.000004352430883041005227 -0.000004031969584025493460
518.000000 0.000003874985797486629109 0.000004302350092973914563 0.000000142097327163580803 -0.000008148676218461590955 -0.000004150632964919571422 -0.000003844941061640762638
520.000000 0.000003679428401779003797 0.000004071780589723263138 0.000000108581370403985380 -0.000007755788088255759395 -0.000003951565008883876032 -0.000003660136581756405440
522.000000 0.000003523226209514002982 0.000003894508088164946382 0.000000081072603443964421 -0.000007452994152922870781 -0.000003768064385192366534 -0.000003490080634389229108
523.980000 0.000003371181412592062401 0.000003725935206722491361 0.000000014797326905545424 -0.000007220489701127021444 -0.000003595995802834124355 -0.000003331323755333200809
