0.000000 -0.000000000000000000000000 -0.000000000000000000000000 -0.000000000000000000000000 -0.000000000000000000000000 -0.000000000000000000000000 -0.000000000000000000000000
2.000000 0.000307363846644546630064 -0.000546318422734536567574 -0.000297668055058396925291 -0.003227554642457439778441 0.000309930621391164905047 0.000314978019574202114383
4.000000 0.000503006266851223370930 -0.000208000753962269178217 0.001183046476343347676308 -0.002039530005893125299415 0.000561330511633408133117 0.000566457147122079738080
6.000000 0.000124025620321979918904 -0.000477758600999655751694 0.002147356822682412215431 -0.000573849570882876535566 0.000706577572212177388612 0.000710292829973335889879
8.000000 -0.000468649476029033213494 -0.000729427179471348096154 0.003459374034186151174869 0.001271985269189447424754 0.000955787376062384617589 0.000922615987900853680090
10.000000 -0.001744194691940373180550 -0.001616936975791161655580 0.004861181120053976317807 0.003506666861093420389101 0.001433822972933792736991 0.001333762791604954384833
12.000000 -0.002820604002381011613659 -0.001954711701058495145616 0.007024563091958755875477 0.006209303294775571357977 0.002127898262275267939059 0.001901364527563737492899
14.000000 -0.004234092185781129259736 -0.002821136556884844357601 0.009686191877791541088305 0.010445216632840719286901 0.003268727147067919825557 0.002782534273771967905237
16.000000 -0.005663962434116744971979 -0.004486449406826817885852 0.011573350119350197737211 0.015545263692097334440323 0.004897510030073298770148 0.004070237250467702988521
18.000000 -0.006083967778856112437746 -0.004703625549484602257067 0.015142049337964902031017 0.022851192927431762669244 0.007050680589698543609956 0.005712583521221547069868
20.000000 -0.007163803309891697210232 -0.006154794596359002001318 0.018229286528629751878983 0.032389028804727160171240 0.009607495946220378710279 0.007643055222662491036967
22.000000 -0.009960331978521478474287 -0.009466357278247341730526 0.020892414832818034797768 0.043339502642684123168149 0.012676611566827039254135 0.009929405465310757461506
24.000000 -0.013216453335544817160319 -0.014091723913802433471032 0.022698404917282904297293 0.056236213426061616715845 0.016177609614506510693488 0.012508233709644345568734
26.000000 -0.015958862945058244209307 -0.017445132678495064298962 0.024441544647377997506732 0.068370558661007593825865 0.019953417386371238156917 0.015378236870353534024303
28.000000 -0.019295594914104412936906 -0.021450706076931544408204 0.026356331208037011432088 0.082980410401939014297668 0.023591409938441103288920 0.017966362553109016531039
30.000000 -0.019023475390175854926600 -0.016562190384168572893087 0.034469531666755232057753 0.101798986480792261200001 0.027233717326899772176452 0.020359272285359577420172
32.000000 -0.019873943651179400149420 -0.015856660774926662621498 0.038571416980054534784372 0.119514951731381963151435 0.031008696076007719738543 0.022899556400708152154033
34.000000 -0.020167681469368928942609 -0.014659060272471812272355 0.042724152848762228518176 0.137070131480417939373595 0.034520136955886633611801 0.025330622646987932533591
36.000000 -0.021280869822330017449019 -0.013619664009699938844733 0.047702023449733274573781 0.157289056127446619237631 0.038374607026755838679044 0.027913012568685384440226
38.000000 -0.023300295406827917221726 -0.014552467192688538222267 0.052571081057083426935073 0.177388972497381586235221 0.041840171910890552875451 0.030260881786806980570104
40.000000 -0.026274330608927257829643 -0.015468410252828435416661 0.061426432290586210904770 0.201004400415000977764279 0.045853590544748266955022 0.032974762919087567680787
42.000000 -0.029678993040425726002152 -0.018201992452597459681840 0.069563861746737509772487 0.222278408890582895862664 0.049886413927635202270050 0.035794261787121292583969
44.000000 -0.032873763281602672026160 -0.021364599153486877464170 0.075815984521229548565024 0.240169741045417023395103 0.053659777370564036569345 0.038691462133518969568335
46.000000 -0.037177472958777602052294 -0.027157745217628596196002 0.078989491398830796731190 0.254505694412011429506038 0.057567282140478175100906 0.041870376577046404531490
48.000000 -0.041958568229133443028278 -0.034073821749288732418925 0.082319137960266436371271 0.269433571016314488133503 0.061539752685130108544875 0.045155104844162671784424
50.000000 -0.047114119778541477256972 -0.042277983910217808993792 0.083139335972073652447634 0.280438324523694493262127 0.065130164841338045178532 0.048468275091175884450312
52.000000 -0.053024127759538165760578 -0.054527400507989570721534 0.079025732162736672670178 0.287920166412784728215968 0.068161039746052268228915 0.051466400309485675623744
54.000000 -0.059768394690326263896107 -0.069058040862735495246660 0.073608744870597653253697 0.293270573124031153078306 0.071129459771819114610736 0.054342648042990514267725
56.000000 -0.066296010951440317859884 -0.080862794094335374572857 0.072924653879169368253521 0.302198948082609719634206 0.073327491239816161572307 0.056369118931531757288322
58.000000 -0.071765566609065203906859 -0.088608568816859648031858 0.064854437935244688140379 0.286128712647282734682364 0.074844358651369541357568 0.057841652494180828547599
60.000000 -0.075622663627881822612231 -0.093508534904828313760738 0.047707742831422934870478 0.249762245387318670974963 0.075527930392113903912410 0.058658340659028383734519
62.000000 -0.078934919590318161630726 -0.097466397873738661039589 0.027322829703173727444732 0.211287105511694439652359 0.075152216833045779043054 0.058532759484650295767061
64.000000 -0.080486486380043839594656 -0.101280721158076597587794 0.006261772274733620052833 0.173953966699284340302611 0.073201339741664275817534 0.057296575445177432006627
66.000000 -0.080118608643008668024343 -0.099135634071325570704225 -0.002426158206342726199323 0.144445773815033262632568 0.070758218554436688729758 0.055768708846513026511360
68.000000 -0.078253974115228774888209 -0.094341079202973993078629 -0.006858253159395842797619 0.117209218500895329118094 0.067786224494795210837594 0.053937411749005029215631
70.000000 -0.075777726900007127963654 -0.088143218441394791118348 -0.009174587747607706317288 0.091762458507505917371105 0.063808143849408430203773 0.051605195754341130764953
72.000000 -0.072542388712197383715541 -0.080777226563684675908483 -0.010905563348921600008712 0.062914984551691074954327 0.059718879441546982023148 0.049086635685453093580488
74.000000 -0.067928390697516327634276 -0.069735173151378865297190 -0.009509427986430065218859 0.039851181838156078673929 0.056193854421202317495077 0.046758904595489460265245
76.000000 -0.057684446133082448171514 -0.052195668044346520131338 -0.003265699471986587779787 0.019073902090399545705690 0.051579633577492546570031 0.043473432701844054448781
78.000000 -0.048546651619039433989133 -0.039580321807534610267787 -0.001930539959862713397104 -0.002588838119411094717409 0.046790858494408726908631 0.039808068135347450533512
80.000000 -0.042153063272582294573887 -0.031185271837546164885868 -0.002302565974270079449809 -0.016318348559025593058625 0.038519315709986685913879 0.033572241118887555244577
82.000000 -0.034573065638296082702219 -0.021390471458470533550056 0.000608504971364416148705 -0.020307223986044321828448 0.026700440503212328341442 0.024694892245563569016520
84.000000 -0.026791429848779441114104 -0.011215794445476469365364 0.005829861458920213880541 -0.017930491618386022734111 0.020022748383128907007089 0.019441987893633303624563
86.000000 -0.020224886860590769732671 -0.004646928407806005800751 0.008241705730782811212265 -0.013238214211725838134748 0.014639995159948886865875 0.014986698930811802321639
88.000000 -0.013927562387910036659222 0.000773268996026984438245 0.010915038060525600327466 -0.008446545647455852567909 0.010782654120223894231301 0.011527224001354946514297
90.000000 -0.008039544829725010083310 0.005023311320613344822805 0.011897806888389077933921 -0.005830429271160681402308 0.007716121357697849035551 0.008652481846085066652385
92.000000 -0.002463482683769092039527 0.007692138105777708047273 0.011833195842096758121365 -0.004614896924628567563553 0.004150759383855812112429 0.005415451095369262779489
94.000000 -0.000822073694412520854062 0.006148822642302318938756 0.008944051094346944924540 -0.005792528257530512453277 0.000606187425083067055187 0.002429665825981707199394
96.000000 -0.000562356409099075437753 0.004050414863188959990747 0.005814877746203516925561 -0.007063140245115599562264 -0.001866445943125689520964 0.000245106833524827373485
98.000000 -0.000063398400521574299203 0.003361074107185578474510 0.004415520484659977117070 -0.006514854720113956790262 -0.002818491411129535155478 -0.000809732722572936778997
100.000000 0.000124385111965482128950 0.002455473186674718769074 0.002711356041445551253583 -0.006108207483797358124111 -0.002261170455902145309118 -0.000660226129374482891866
102.000000 -0.000045819675718621372834 0.001095537712146021783535 0.000470172633686623015360 -0.006119982519447876578855 -0.001212713880066064540270 -0.000073528716989095527635
104.000000 0.000027448507847078462414 -0.000131569314344238817065 -0.002258787013939661005024 -0.007020260689255063135672 -0.001294451403703373963683 -0.000236913870766917284381
106.000000 0.000192109435757301512350 -0.000068094299132210228719 -0.002737575394983017551542 -0.007207891747552796699039 -0.001238265677615838118719 -0.000270909145675988203856
108.000000 0.000430714778900465348945 0.000326312293994036515220 -0.002440308573072907244450 -0.007092704170994493760583 -0.001230903521057477752187 -0.000347479270797847075540
110.000000 0.000682396111857756283194 0.000686528048647421971183 -0.002193720024294128472658 -0.006977686456493039854343 -0.001353423432481900418045 -0.000546356840330751067879
112.000000 0.000875767325587460156167 0.000953929703987947859301 -0.002013060621729977940630 -0.006843824715475159241318 -0.001291813382935947437241 -0.000584016755372650307569
114.000000 0.001039889858983267332398 0.001177021967247350890326 -0.001861011505926104918351 -0.006698306647984822274899 -0.001250997373910381609691 -0.000638483775899722637466
116.000000 0.001260992541720184177689 0.001433604595896775064576 -0.001689327317020378497678 -0.006546525899900861381053 -0.001390699875660559052190 -0.000852950691157862385047
118.000000 0.001479353570662216140960 0.001659138849722622231775 -0.001572769114076137328406 -0.006470423678485647325798 -0.001620224446199454958195 -0.001115222949497526091361
120.000000 0.001667712709686552594035 0.001821041723617104193464 -0.001522566780536675160734 -0.006459524853992008527892 -0.001858704586254375209012 -0.001368277540743625866199
122.000000 0.001797770549828310885851 0.001921325865491684383238 -0.001519345316342049848068 -0.006480218583494396292211 -0.002020208831820993929107 -0.001534252732128260632294
124.000000 0.001868360818258103968337 0.001961302980898981234564 -0.001561609264563318562324 -0.006532938725088670815777 -0.002084869212537050504191 -0.001593836194605763312282
126.000000 0.001925690421117508353138 0.001991696320925572839811 -0.001602883651523935104946 -0.006583252494619024064448 -0.002135168547982884551528 -0.001639665828647097773479
128.000000 0.001974942528096177395136 0.002018119171330494572569 -0.001639191490118137826959 -0.006629438140642829498106 -0.002178391797877516234544 -0.001679912678624222556814
130.000000 0.002017515122368110109391 0.002041602418851435306324 -0.001671226821658442071236 -0.006673458264936890302343 -0.002215934881237727020753 -0.001715374581986540969414
132.000000 0.002054675139310976113988 0.002062950146818904283152 -0.001699702680443297394056 -0.006716746094455568368009 -0.002249117991118156859726 -0.001746940907113929755679
134.000000 0.002087485656925620707003 0.002082741213015220412691 -0.001725335822611366110371 -0.006760365786269162576005 -0.002278984800179149460692 -0.001775346868209181760284
136.000000 0.002116827495773829052872 0.002101394593559803222749 -0.001748792731184162143471 -0.006805075781947675719885 -0.002306346431090974466449 -0.001801191353890430144752
138.000000 0.002143430332477025499621 0.002119220483112456074326 -0.001770671008657533811517 -0.006851428513208567341874 -0.002331839773959865861480 -0.001824973527120029399493
140.000000 0.002167904382970236264183 0.002136463500400436268944 -0.001791470538525322944365 -0.006899798229709776763163 -0.002355975934435550808027 -0.001847120823959417026949
142.000000 0.002190767541488468795469 0.002153333847778601557038 -0.001811597935354540209185 -0.006950443523302266696229 -0.002379168903804404662516 -0.001868002922581657671355
144.000000 0.002212442369594740023547 0.002169991960341381958405 -0.001831390850630140558486 -0.007003537861472674229402 -0.002401755268252028438503 -0.001887938274874648028959
146.000000 0.002233290403086141476252 0.002186591159335105321454 -0.001851102733253990814677 -0.007059190560205435768792 -0.002424014763188396537341 -0.001907204562189248079826
148.000000 0.002253611328246322900032 0.002203258983563325008881 -0.001870955968095430093159 -0.007117510768565272691322 -0.002446178938424021891140 -0.001926040757118753065508
150.000000 0.002273656906631326204971 0.002220107931743814291131 -0.001891112778984769399182 -0.007178572120078880250404 -0.002468443609650101955300 -0.001944653853881225021721
152.000000 0.002293635438391251717138 0.002237234264496321817228 -0.001911719795261455738522 -0.007242448739426245347961 -0.002490972855898532754837 -0.001963221097648398284774
154.000000 0.002313725203682068590205 0.002254727443860898763311 -0.001932888808059414964199 -0.007309223360753905156251 -0.002513906737984726493668 -0.001981894896363743316381
156.000000 0.002334077825900286035088 0.002272669920166860407090 -0.001954712588491589169565 -0.007378974821000558285966 -0.002537370012495533851127 -0.002000809607593265725123
158.000000 0.002354819736606519019195 0.002291128504108116709787 -0.001977283445368177485640 -0.007451811081883048110130 -0.002561467733666953575794 -0.002020078498763711993130
160.000000 0.002376063432206745092840 0.002310171051176441309183 -0.002000676691856424858212 -0.007527837456997709536521 -0.002586299521874653537662 -0.002039805310994960256543
162.000000 0.002397907112125149346055 0.002329860879517569455244 -0.002024960036855423788776 -0.007607175723808458356334 -0.002611951444586038933310 -0.002060078870813315029403
164.000000 0.002420437634152268133181 0.002350253088869755802720 -0.002050203345869896966874 -0.007689960768158234961922 -0.002638506290267885346507 -0.002080981048557833511942
166.000000 0.002443737660888390967467 0.002371407793610006992796 -0.002076471935576247422606 -0.007776347782472181092983 -0.002666044542458424326109 -0.002102588666593768317731
168.000000 0.002467879781696338380853 0.002393374110657248317324 -0.002103837800480596199187 -0.007866504329576116255618 -0.002694637920202552338472 -0.002124969366834871496719
170.000000 0.002492935076968556037252 0.002416205404403461501350 -0.002132370194434847314457 -0.007960610162495048575115 -0.002724364744035238320580 -0.002148192759672689928357
172.000000 0.002518975585443576116484 0.002439961704199638745094 -0.002162133876279166526391 -0.008058859963716647964449 -0.002755300958299911236182 -0.002172325034332187390640
174.000000 0.002546067518913530149105 0.002464691779129591329978 -0.002193205990793073174167 -0.008161466403677269595973 -0.002787521074518668415254 -0.002197430010184477176122
176.000000 0.002574277781244296934432 0.002490449908879995184752 -0.002225668897857076538455 -0.008268659151026239509386 -0.002821102628903280826189 -0.002223572122951504928534
178.000000 0.002603679562560933836990 0.002517298326443580779033 -0.002259600913534329843374 -0.008380683091079093802178 -0.002856128761235475575081 -0.002250819352168657774133
180.000000 0.002634343913910605107509 0.002545296443884498879123 -0.002295087966585675123138 -0.008497801281405802445446 -0.002892684817694561767720 -0.002279240462686818631532
182.000000 0.002666344917616773110142 0.002574505357338366298009 -0.002332229788399787628189 -0.008620300447922210618223 -0.002930858363796172601223 -0.002308905248683921097169
184.000000 0.002699761093181650070671 0.002604990957779650465054 -0.002371120835980919903940 -0.008748486157264513674026 -0.002970745985722659642664 -0.002339890126277757633616
186.000000 0.002734673892629268642657 0.002636824134873868002299 -0.002411871583502232102569 -0.008882686612029703707161 -0.003012446968963262711877 -0.002372272999861578437336
188.000000 0.002771170864868077645532 0.002670077704552976591290 -0.002454594366992932184118 -0.009023245811281320818975 -0.003056066920939159211462 -0.002406136425513432774287
190.000000 0.002809343264811104638051 0.002704828076961305217268 -0.002499412826274018725042 -0.009170544490442876506275 -0.003101719243772422997946 -0.002441568770925607936850
192.000000 0.002849286611282240023330 0.002741156629789441318695 -0.002546459554234701151004 -0.009324981428084683568458 -0.003149524832545876756873 -0.002478663739394241886937
194.000000 0.002891107781376538090473 0.002779153420517732099582 -0.002595876181556093943020 -0.009486996528183386928612 -0.003199613602887339033204 -0.002517521892331195040859
196.000000 0.002934916457037835615940 0.002818910581542032403601 -0.002647816566273687981931 -0.009657052618729022180899 -0.003252123105810668379778 -0.002558249696773970838920
198.000000 0.002980830544204935306923 0.002860527665697797095046 -0.002702444724824359413573 -0.009835652429489168471766 -0.003307201881473517506016 -0.002600961741783440386161
200.000000 0.003028976769168509330932 0.002904108826082937595131 -0.002759939696963773468619 -0.010023334602673194398959 -0.003365009459084870348244 -0.002645781028378303440657
202.000000 0.003079489874713474319851 0.002949767334902061652335 -0.002820489925717918362064 -0.010220675861058171191020 -0.003425715308442718164822 -0.002692838288926430873049
204.000000 0.003132516721000816461995 0.002997624671638912836891 -0.002884303632631617618498 -0.010428298330839854551888 -0.003489504825432987195760 -0.002742276224078623366592
206.000000 0.003188211905424534649278 0.003047810842557644936401 -0.002951598142435214386370 -0.010646875380442994904473 -0.003556573634910235436751 -0.002794245513253215858207
208.000000 0.003246741852138709891890 0.003100458953064814948686 -0.003022622424717728850663 -0.010877130859999870407528 -0.003627133538890885740974 -0.002848909017337124521124
210.000000 0.003308286232386233646080 0.003155718412108107686492 -0.003097628971714417537436 -0.011119841057566902733922 -0.003701413334239879882742 -0.002906442838006314047239
212.000000 0.003373035888988276144451 0.003213744089311820675142 -0.003176900150543939156667 -0.011375846063390267215443 -0.003779658484248737439215 -0.002967035482217819306050
214.000000 0.003441198057934440144440 0.003274704694120956268572 -0.003260734764888888279760 -0.011646046777398262259129 -0.003862133557494012991995 -0.003030890580253036217795
216.000000 0.003512992949937913424174 0.003338776259849824713799 -0.003349464388687900355535 -0.011931419225807371464754 -0.003949122075694693791148 -0.003098225776839305146970
218.000000 0.003588658338384729737380 0.003406152293589921435657 -0.003443432434410492997551 -0.012233005550221404816869 -0.004040930622805929961494 -0.003169276765737834202635
220.000000 0.003668447485045918388114 0.003477032232321644687062 -0.003543022989991095883511 -0.012551941436867972839986 -0.004137887443119157501736 -0.003244295585950856316421
222.000000 0.003752634051347652176245 0.003551635236248203760651 -0.003648641486165375095313 -0.012889436886156391964819 -0.004240347826468743482053 -0.003323554901196830099752
224.000000 0.003841510459476371250331 0.003630192819341862553451 -0.003760725382788338271717 -0.013246793688447418627097 -0.004348691609756084180960 -0.003407346466142483886602
226.000000 0.003935388132101027766629 0.003712948568584856050279 -0.003879747216467193792616 -0.013625416005426778387477 -0.004463327374421580118202 -0.003495983905864849528022
228.000000 0.004034601828988292580858 0.003800165745236338665086 -0.004006208662560698831323 -0.014026806685941691638098 -0.004584692756111102135419 -0.003589802981451876377067
230.000000 0.004139508466105341899510 0.003892121745774861692885 -0.004140650114704363254914 -0.014452573295134999581402 -0.004713257675330278020920 -0.003689164293961040824027
232.000000 0.004250488399308118871167 0.003989110562674351261048 -0.004283654522618424685676 -0.014904441644407717335041 -0.004849523767472542663814 -0.003794452724910665156882
234.000000 0.004367949202671249017693 0.004091447184379625075235 -0.004435831774803529817253 -0.015384243556797674509773 -0.004994027678085884158765 -0.003906080065919549908909
236.000000 0.004492324280594768570740 0.004199463715792308739216 -0.004597843161889665630770 -0.015893936103586744218452 -0.005147341287856389488442 -0.004024485229349195405946
238.000000 0.004624078356301132911033 0.004313512408071778006513 -0.004770392579437899606420 -0.016435604516039960254492 -0.005310076262322038602448 -0.004150137878669774883778
240.000000 0.004763709324755208487923 0.004433970885740103409778 -0.004954234440100579311972 -0.017011466300014224661830 -0.005482883023333102838481 -0.004283537564486185680868
242.000000 0.004911754878397125816114 0.004561245801954071088513 -0.005150174470682445694580 -0.017623879559254328891482 -0.005666458523259108870374 -0.004425220183823103115017
244.000000 0.005068794785248704332092 0.004695769346145212130850 -0.005359092953102345506522 -0.018275364099154742247855 -0.005861548790591247261317 -0.004575759975965081743920
246.000000 0.005235462529061708260303 0.004838013181733454189104 -0.005581947784370855890346 -0.018968614719043961486244 -0.006068958451495168673895 -0.004735777233746191715313
248.000000 0.005412452926822322769873 0.004988489619070282481139 -0.005819798396002060295040 -0.019706538856733214759576 -0.006289560894655734507586 -0.004905946450511245934822
250.000000 0.005600536076817876421363 0.005147763400645605745554 -0.006073829641119497108059 -0.020492299459749691720178 -0.006524314447738095538998 -0.005087008885916582782982
252.000000 0.005800565946806519185275 0.005316453993308324979528 -0.006345382526291891249481 -0.021329375206050670693569 -0.006774279178318785323010 -0.005279785903313323827679
254.000000 0.006013496017079927001558 0.005495246341750828662776 -0.006635982779391101475663 -0.022221629364189570549071 -0.007040641540760104490071 -0.005485197747227337113085
256.000000 0.006240388783477722293991 0.005684893086154781983999 -0.006947372018464945987726 -0.023173400905845051994669 -0.007324739116400238655991 -0.005704282281379384825226
258.000000 0.006482422263768160795860 0.005886213266682344125158 -0.007281538430608248436970 -0.024189603195862028478524 -0.007628087737177476589101 -0.005938215055400536748764
260.000000 0.006740890552770184042386 0.006100085568230912726195 -0.007640728492812121248889 -0.025275818333103019369679 -0.007952404591069344233500 -0.006188325639236623432193
262.000000 0.007017194632520885530513 0.006327428595418792788008 -0.008027450856043271201767 -0.026438389207987082057949 -0.008299625549291381187977 -0.006456108550258664487143
264.000000 0.007312817582949595815456 0.006569167667053282290424 -0.008444456028992151919166 -0.027684480625067252324012 -0.008671907405117123407434 -0.006743221896086140816629
266.000000 0.007629293247335437386236 0.006826193715632802513915 -0.008894694320720363325816 -0.029022097103453346755852 -0.009071613094009922315109 -0.007051472447468762165534
268.000000 0.007968164117822595232665 0.007099320898657509627816 -0.009381246031280774180794 -0.030460032498594094563238 -0.009501271642230191272205 -0.007382781216185741769709
270.000000 0.008330937587905370284025 0.007389247784149990429248 -0.009907237212776845783346 -0.032007756376739832093747 -0.009963514945662570523877 -0.007739131594398912690480
272.000000 0.008719049840547008281555 0.007696534939854391896286 -0.010475755308652023867211 -0.033675214279398242578356 -0.010460995063229575063879 -0.008122504194714949901646
274.000000 0.009133848214640770402095 0.008021618464711393822753 -0.011089786434571948653405 -0.035472574263390989346423 -0.010996290677950623301817 -0.008534806625507053087776
276.000000 0.009576601460249937677882 0.008364875764524857398863 -0.011752182406249544327492 -0.037409927977596589554476 -0.011571821357440722349841 -0.008977813455281011961739
278.000000 0.010048554284090634169946 0.008726756539756613112457 -0.012465662636115417902238 -0.039496984499989604144865 -0.012189786493143903514658 -0.009453130851660402483860
280.000000 0.010551035462998568578707 0.009108011344268363007615 -0.013232829320525477459491 -0.041742799616726153355550 -0.012852153974255179844088 -0.009962205974289629895058
282.000000 0.011085611458005606086430 0.009509968518215880517452 -0.014056198962760863002686 -0.044155550005684780778825 -0.013560706559566315654308 -0.010506386544362924032048
284.000000 0.011654287165242468299331 0.009934841903552087127860 -0.014938267138795958965947 -0.046742450290907677779018 -0.014317163247420886668104 -0.011087039120006079648273
286.000000 0.012259727224933967063003 0.010386016240981814015565 -0.015881586467695871234262 -0.049509822750723152251506 -0.015123369346573134128220 -0.011705718045926892870168
288.000000 0.012905480375556376351764 0.010868251450661350898663 -0.016888909922988040723801 -0.052463389983872281419064 -0.015981557373014390610599 -0.012364380468386452355256
290.000000 0.013596148666533013418811 0.011387694897004948038632 -0.017963428327272937951031 -0.055608832431013513475371 -0.016894666345738482138295 -0.013065632091198646491659
292.000000 0.014337428678557952166361 0.011951620686379600330684 -0.019109106422290394328156 -0.058952652234528307717554 -0.017866696827051178897428 -0.013812982144289959879346
294.000000 0.015135879840595934525682 0.012567797405442750896531 -0.020330895584690533706151 -0.062503152523860724953941 -0.018903028747819041605061 -0.014611051838488337689670
296.000000 0.015998053120235746632494 0.013243255557130973951163 -0.021634252927341727362753 -0.066270966068274192450893 -0.020010498971604125106882 -0.015465582765408748822100
298.000000 0.016928478181317544587481 0.013982289315521898714900 -0.023022797597545791720153 -0.070267974798156648819081 -0.021196807708872240222364 -0.016382912843273107067477
300.000000 0.017926449097598353560334 0.014784121803900573607904 -0.024492776555000619204128 -0.074502998550809454436639 -0.022468586279002115274617 -0.017368395946733939522177
302.000000 0.018983352636001152996537 0.015641889120760619352746 -0.026025542773461529666434 -0.078974163992876642015339 -0.023827742307100861079983 -0.018423443393717778282515
304.000000 0.020083686602701562168294 0.016545001821191500368524 -0.027583610900498455043017 -0.083660932231283374749253 -0.025266954351195164418797 -0.019541858358574918513861
306.000000 0.021209812028362893393529 0.017483940048528774646730 -0.029116665030985536960495 -0.088520052155815973082831 -0.026766625977285310455933 -0.020707326073145026351652
308.000000 0.022345934723995038856392 0.018454300580323639707769 -0.030574985187061660268926 -0.093485431576749045134989 -0.028295478561743171719289 -0.021893970337090829653137
310.000000 0.023478513452531993982442 0.019457928740399220435275 -0.031919573114602063645950 -0.098468270900584645155540 -0.029814979747827190931231 -0.023070453875750553118795
312.000000 0.024594577696509831860050 0.020498725718113560562150 -0.033124904813804201264560 -0.103357663384536072048725 -0.031285484182101128136644 -0.024205926052727467362446
314.000000 0.025681762856762015839740 0.021578185311301834731212 -0.034175467938981615723115 -0.108023363616820439192523 -0.032671323014164144193927 -0.025275041551540231715700
316.000000 0.026734269785944012737255 0.022705190522973432015741 -0.035053142311700299926791 -0.112318773943164765261038 -0.033943662686460533695065 -0.026260442577930344365544
318.000000 0.027759635411047901831783 0.023914328814194599215348 -0.035718363873135317021479 -0.116081087717286729477095 -0.035080911266140928084223 -0.027152360008388626982923
320.000000 0.028774928473650356747227 0.025265849905785158630023 -0.036098799788663912813114 -0.119130207430997919759719 -0.036066433915619325323298 -0.027945511034276036138602
322.000000 0.029794600983223399476296 0.026825033986316058204347 -0.036092497509606018268880 -0.121273278011440652224273 -0.036884511567953075228399 -0.028634418704544657013900
324.000000 0.030820325413663841873646 0.028635497374814487814287 -0.035590108944342814523143 -0.122325342897429661936926 -0.037517587965618368062160 -0.029209563761841583762191
326.000000 0.031835832380674833341772 0.030691203216529662489709 -0.034515584090357279145600 -0.122141308543818979948092 -0.037946497982849637653491 -0.029656017084830298830012
328.000000 0.032805407031210653823194 0.032916072080608600736173 -0.032859774252648972503454 -0.120633665504583778571579 -0.038152361148800266466008 -0.029954270288336710265087
330.000000 0.033675840595616041150961 0.035162132679585039740644 -0.030681910488453045110502 -0.117761157661363316528913 -0.038118253648170639935611 -0.030082214283421681438879
332.000000 0.034382337025081755044198 0.037223861606458921724716 -0.028084953654370321124434 -0.113499396166924684803412 -0.037830221360303159516825 -0.030017963809387631507475
334.000000 0.034858495082292460798268 0.038871405019369489886039 -0.025179718243567291574569 -0.107816137224221592072482 -0.037277992574619299437355 -0.029743479270719457019378
336.000000 0.035047456317356284749565 0.039908747256063789587976 -0.022052313354393907052220 -0.100676238332616213577708 -0.036455599586364989539433 -0.029247985087550762428599
338.000000 0.034907527605669758097306 0.040225120653198088993552 -0.018764004173163373323518 -0.092093652532640762897742 -0.035361746928635293119036 -0.028529428808114237758886
340.000000 0.034409429135148654477216 0.039791981940285270358260 -0.015400564394309266061378 -0.082217958632810575481109 -0.034000299606363020010757 -0.027593610722416634511989
342.000000 0.033532818814225817671826 0.038622051910973273503025 -0.012122162690804124535182 -0.071389517301520377667856 -0.032381727414401408060574 -0.026452650215426701946209
344.000000 0.032269610699062263592385 0.036744908144679337691496 -0.009143223312984057743469 -0.060090600160246171457246 -0.030526795357695493682293 -0.025125190951940604838777
346.000000 0.030630948363566556924553 0.034214485827196806921879 -0.006650377842021605936940 -0.048824544797582462851704 -0.028471014472638802444981 -0.023637649435044733037259
348.000000 0.028650126546695322410363 0.031124811449301965915470 -0.004735004720424120655542 -0.038031698505736587223591 -0.026264197037590374800287 -0.022022686609497861554008
350.000000 0.026380793395171769910590 0.027613801263557537224447 -0.003384422318934518329747 -0.028077043262161066605742 -0.023962847155991839898093 -0.020314331503282018198675
352.000000 0.023895525417931842704355 0.023853468930284012217147 -0.002517189727870957054873 -0.019267914659515269354406 -0.021619475877454059908889 -0.018543016636769046184829
354.000000 0.021281451746706831623657 0.020027185094066025233817 -0.002031505715125788303493 -0.011864388347541124368867 -0.019273874806500751466487 -0.016732778944132872811501
356.000000 0.018627482281889162080146 0.016300291520709071085848 -0.001839327044162778227940 -0.006056464736381027454126 -0.016951901951284733399694 -0.014902670290685687132237
358.000000 0.016008643921487587108432 0.012800904207428773912136 -0.001870102657069535939324 -0.001898089572319182870286 -0.014675280281486138833635 -0.013073793436892661157245
360.000000 0.013480612409893684422446 0.009622821519726279526630 -0.002051747181982922687421 0.000747347843385717152190 -0.012475179024864002652606 -0.011277158260088295319012
362.000000 0.011088320032077532070747 0.006840359691467435242218 -0.002294949529707233926157 0.002183193365438441599369 -0.010394287988670574546246 -0.009552942962018116240808
364.000000 0.008877779968173927019337 0.004512667890987942000136 -0.002503613382829002458746 0.002779994863762352049624 -0.008475675934868334010508 -0.007941036133197722224342
366.000000 0.006898534372652738964893 0.002672284692482894408183 -0.002604853137208707793138 0.002867647787055675051571 -0.006750885966116681319305 -0.006472024914019189160974
368.000000 0.005196665210997624372025 0.001315764237867531527212 -0.002566622436501767197392 0.002683168618125497065924 -0.005236846298842547792196 -0.005165006161824100758273
370.000000 0.003803199417799195576617 0.000405376632829492519576 -0.002392678028210555932209 0.002374529207937231024828 -0.003941513763108651577372 -0.004031320495945126675119
372.000000 0.002721355881464903193195 -0.000125227473726627125178 -0.002109321937866308425275 0.002026242630901565512647 -0.002870333556434117184414 -0.003078622998158201534702
374.000000 0.001923062316177403825029 -0.000362141892841259165157 -0.001753660192894007175193 0.001684520185104420838054 -0.002025907913770958607147 -0.002310613079793381093724
376.000000 0.001359716468824259541850 -0.000396460397446407066240 -0.001364368610614874986753 0.001375153463702074837019 -0.001399862709820301259409 -0.001721612541902353687995
378.000000 0.000976341457245405637023 -0.000312085535316855436708 -0.000978840586577082831521 0.001111735327331867971210 -0.000964306884535256082086 -0.001290632507286001073518
380.000000 0.000720925349322836363578 -0.000179537680864610824831 -0.000633800647491632803028 0.000895516589684712473358 -0.000675220179089172883695 -0.000983898704520102607499
382.000000 0.000550449201455767921608 -0.000049470153919358641895 -0.000358117816851325702476 0.000717435912748649764863 -0.000487439603200368878552 -0.000766012999552795510738
384.000000 0.000434108715527848883567 0.000052160541947505415644 -0.000162009165629574549512 0.000566073622343078383667 -0.000366366199120973692459 -0.000608963316726653385198
386.000000 0.000352010705733122697229 0.000119460054352719575207 -0.000037668965286807767207 0.000433584170895129957651 -0.000288892503274244827078 -0.000493283576805173679114
388.000000 0.000291500518566716623845 0.000156486185162989032511 0.000030933806255145366638 0.000316360738886695873687 -0.000239293369340175130161 -0.000405413617931769801935
390.000000 0.000244359738119710734328 0.000170008397383833659636 0.000060087658142959099483 0.000213272494950889816932 -0.000205988079001197802636 -0.000335542062893958575875
392.000000 0.000205391764449168191245 0.000166731434790310512322 0.000063529305916235981615 0.000124840437370007592555 -0.000180454506186236620507 -0.000276865910784548311524
394.000000 0.000172023209374288946032 0.000153044190346561152045 0.000052400185351250230564 0.000052024385900047819670 -0.000157707718977101798985 -0.000225845462558449947606
396.000000 0.000143644116867464147246 0.000134699482818129341339 0.000035179507712748805991 -0.000004877868180687792982 -0.000136486420937972880796 -0.000181980969778387005045
398.000000 0.000120436728863817360796 0.000116093815661992037845 0.000017639109788228470786 -0.000046762610806285830176 -0.000117706331735207040626 -0.000146075571395415154587
400.000000 0.000102244253060267936803 0.000099631218769030664034 0.000002623095335720845415 -0.000075883600255658171987 -0.000102238904723167835210 -0.000118231967775795116936
402.000000 0.000088311235897774176262 0.000086067781754123798125 -0.000009008684557872082701 -0.000094931915860878350556 -0.000090008058819311166383 -0.000097355750220419620070
404.000000 0.000077686269447559846459 0.000075251167943691466759 -0.000017457867838034886508 -0.000106563629093202609684 -0.000080408272343039186177 -0.000081874055698316221307
406.000000 0.000069517090763499328671 0.000066762132047973882644 -0.000023228681629342181199 -0.000112881840537729918536 -0.000072779991205138830010 -0.000070357855440492046879
408.000000 0.000063162626299504204459 0.000060130029267005318341 -0.000026880269144950348772 -0.000115402601562040636198 -0.000066632205696362580027 -0.000061739703179379456436
410.000000 0.000058150292181258351717 0.000054962977926584078553 -0.000028911002004515702363 -0.000115331210893042095003 -0.000061618788209353910911 -0.000055244090683956547901
412.000000 0.000054136283383733008689 0.000050917840228364424503 -0.000029760482944223711448 -0.000113503650465441452292 -0.000057472296452673974504 -0.000050288923492233520893
414.000000 0.000050827138018481951163 0.000047676593151259204402 -0.000029761316744852756927 -0.000110550765628513201827 -0.000053996284212935761278 -0.000046441607488833459481
416.000000 0.000048033082192038073163 0.000045004750393011323730 -0.000029218592724181128195 -0.000106891065739794281450 -0.000051019656901174102390 -0.000043368135825745442061
418.000000 0.000045593495952403150753 0.000042692358929627837892 -0.000028370248635309512826 -0.000102870911973420618517 -0.000048397120100751735801 -0.000040818235180605622709
420.000000 0.000043395871666114823977 0.000040640766994712984985 -0.000027288464612832904094 -0.000098585052388943788257 -0.000046021794544250039984 -0.000038617805943294733451
422.000000 0.000041366933532647780691 0.000038749072351259218237 -0.000026109031959777154229 -0.000094181746461168903192 -0.000043822749985375183176 -0.000036655377904356164717
424.000000 0.000039468640611851870585 0.000036963652874163983658 -0.000024915735490156545179 -0.000089776612518389364305 -0.000041766890998172269162 -0.000034868567421275302291
426.000000 0.000037672093928339269418 0.000035266433706537200245 -0.000023718027424454792446 -0.000085432953158356758215 -0.000039825279103569844591 -0.000033210967813738285126
428.000000 0.000035946885179325791123 0.000033606161806647585433 -0.000022603667931405382267 -0.000081230571040575346581 -0.000037972434603514954813 -0.000031648750113889025342
430.000000 0.000034279909711751771787 0.000031994811003109692525 -0.000021525703665764123310 -0.000077144964346177854943 -0.000036202209376471025421 -0.000030168567246332360761
432.000000 0.000032678630429253235890 0.000030444217388872530131 -0.000020489512235939472720 -0.000073203799392961910793 -0.000034503146278738428497 -0.000028755250025928466779
434.000000 0.000031150797908506341481 0.000028966036936473936420 -0.000019506057596038065894 -0.000069434310490766154014 -0.000032884149468003538318 -0.000027411227253877366779
436.000000 0.000029673444418263635958 0.000027518777843782555155 -0.000018606186874069591670 -0.000065929401409965906924 -0.000031335617170918087697 -0.000026125016098798283990
438.000000 0.000028259016313437263152 0.000026165644878279416046 -0.000017701935788515811397 -0.000062585585960927658626 -0.000029850281247187208412 -0.000024891796114067484322
440.000000 0.000026897113555626524527 0.000024840276427311856500 -0.000016880627037639382325 -0.000059521937780399384026 -0.000028423809707231167395 -0.000023707068769108146722
442.000000 0.000025587343416798149565 0.000023583282046560949575 -0.000016095822285546654274 -0.000056639098206442162219 -0.000027048710388695431723 -0.000022564804199476098609
444.000000 0.000024338483502946799526 0.000022401589836789783614 -0.000015357663961597086620 -0.000053933897040552536385 -0.000025739328687497706156 -0.000021477403426371893114
446.000000 0.000023129534795698504361 0.000021264038633671045647 -0.000014662202559254484756 -0.000051386863239035021666 -0.000024485248466970803996 -0.000020434686730738699261
448.000000 0.000021984884660559504259 0.000020202587708152886279 -0.000013988397648708666431 -0.000048939787014382930830 -0.000023285338245186028966 -0.000019436743108844147811
450.000000 0.000020901003012322357655 0.000019232219470369047988 -0.000013286842986209824744 -0.000046581517840763962538 -0.000022146664548096165988 -0.000018489389245347653037
452.000000 0.000019887989878987593744 0.000018296649684643555831 -0.000012653553461217800037 -0.000044374690811416539807 -0.000021062530619368186312 -0.000017587542418498659401
454.000000 0.000018923550072196791705 0.000017417962268007547763 -0.000012027421231118105055 -0.000042200888921534324692 -0.000020027873450577009180 -0.000016726182733509231112
456.000000 0.000017998111510494420892 0.000016578903161810787267 -0.000011431392784648425340 -0.000040147020329918894238 -0.000019048960501025176189 -0.000015910237343582733452
458.000000 0.000017127853423062559389 0.000015811725152489296552 -0.000010827404152982147945 -0.000038194001185173914606 -0.000018124297858650489023 -0.000015138176291558238585
460.000000 0.000016326322914031423837 0.000015089941333725795478 -0.000010282640106482585196 -0.000036294254283747197636 -0.000017251324477652728740 -0.000014408840985439937824
462.000000 0.000015537802092669569473 0.000014385089743832122082 -0.000009761682023900660057 -0.000034535143029427867721 -0.000016415212261976175280 -0.000013712578496581313348
464.000000 0.000014792327673521079985 0.000013703674224311991316 -0.000009293418063777083928 -0.000032843572798436195600 -0.000015618378514161652878 -0.000013048194010764552206
466.000000 0.000014067369448521696392 0.000013014475342152882875 -0.000008867615609816702178 -0.000031218740403842997594 -0.000014870469445622999706 -0.000012423153865022175063
468.000000 0.000013389406896097316146 0.000012397941614771679089 -0.000008390808402780920304 -0.000029644347970370439935 -0.000014147949391599822796 -0.000011821291869051401188
470.000000 0.000012738552762545421302 0.000011756642001468839951 -0.000008007572342820352298 -0.000028206613475133876235 -0.000013462659453295805991 -0.000011248249710371220926
472.000000 0.000012108283805540793465 0.000011185904634690213688 -0.000007596039317884501444 -0.000026783324942589187566 -0.000012801198223542380978 -0.000010695948040342896873
474.000000 0.000011524856307011792795 0.000010625613909418515503 -0.000007235071628773963204 -0.000025447761881271439128 -0.000012182010405606143500 -0.000010180450591737130636
476.000000 0.000010970090049014616417 0.000010141076064870305790 -0.000006856981325984324782 -0.000024170581839828749062 -0.000011587938393682982447 -0.000009682122260815793398
478.000000 0.000010418611128922414857 0.000009619978881116878004 -0.000006545987946107340026 -0.000022973168902120010774 -0.000011022897138366702109 -0.000009209053504521586323
480.000000 0.000009900351738882598332 0.000009128603364634443841 -0.000006272694467190460056 -0.000021867826870140695918 -0.000010475890351046186359 -0.000008754078422821667317
482.000000 0.000009431410420586417136 0.000008708242049194266448 -0.000005948159740735472921 -0.000020843171923617124152 -0.000009975519191323045114 -0.000008334974224436488273
484.000000 0.000008964012817759477134 0.000008247934048860042631 -0.000005705647372915985192 -0.000019847345217330458604 -0.000009483196942314711095 -0.000007923783819309286578
486.000000 0.000008544240123743901855 0.000007872958545301646769 -0.000005374113951978520655 -0.000018860430028179226200 -0.000009027263234975150269 -0.000007542260710059303075
488.000000 0.000008117179835632561439 0.000007480848644479686908 -0.000005085024643457138754 -0.000017869739395005869150 -0.000008582146612876270469 -0.000007171220138767450859
490.000000 0.000007723451412498444344 0.000007097132304750507261 -0.000004897838594984252243 -0.000017063009116020969546 -0.000008167317275389239395 -0.000006824172400108502874
492.000000 0.000007344715906978025804 0.000006757088076073123097 -0.000004636745219655843880 -0.000016286427805509143458 -0.000007779897539534832176 -0.000006496468009322827836
494.000000 0.000006979530693742852239 0.000006404822389060022315 -0.000004407904634497699883 -0.000015514760272765317113 -0.000007408632297931975365 -0.000006184616126028956130
496.000000 0.000006652783710693907659 0.000006122259888281469043 -0.000004173981368453183317 -0.000014809335711445925022 -0.000007060919217794456089 -0.000005891849468936838289
498.000000 0.000006315699840971350063 0.000005816536538776021416 -0.000003987548910411548016 -0.000014071295238122159246 -0.000006720081910096279760 -0.000005605572293835461982
500.000000 0.000006005321798736489643 0.000005491629702244197513 -0.000003873323444615675808 -0.000013431903807893973008 -0.000006386303351281586082 -0.000005327141107087528501
502.000000 0.000005722194691427181101 0.000005234470074639203352 -0.000003716684145425539089 -0.000012832179641643593301 -0.000006085850212083854421 -0.000005075136611152965518
504.000000 0.000005450814933565220253 0.000004993995049632300035 -0.000003498810728067173757 -0.000012205084027838776934 -0.000005804461502052502040 -0.000004838021705832206857
506.000000 0.000005195361985217489166 0.000004768021219934337398 -0.000003307751720571918871 -0.000011631801900656985722 -0.000005536812355423299745 -0.000004615239975927460567
508.000000 0.000004953460606223424972 0.000004531719412167421000 -0.000003207128790308788618 -0.000011101096484567213768 -0.000005273444937372903760 -0.000004396314131880199648
510.000000 0.000004711284894481222866 0.000004307833293927843314 -0.000003058565246378923323 -0.000010636325535778984975 -0.000005026805721154116574 -0.000004191525009456361023
512.000000 0.000004482298006571745567 0.000004117326488522051713 -0.000002902363069219394364 -0.000010090940522210483933 -0.000004785494990579893157 -0.000003988886023694832832
514.000000 0.000004275205740765160672 0.000003942147438446855881 -0.000002716158510177182338 -0.000009607492647134429243 -0.000004561493505256498432 -0.000003800971008792982483
516.000000 0.000004081184186868624676 0.000003770425561685573868 -0.000002548553070100101778 -0.000009111205409608013524 -0.000004352430883041005227 -0.000003625889405287786098
518.000000 0.000003874985797486629109 0.000003564520855478603979 -0.000002464843689849288254 -0.000008723244541602683715 -0.000004150632964919571422 -0.000003455200485753184167
520.000000 0.000003679428401779003797 0.000003370704097485924709 -0.000002348903447556039840 -0.000008281429585598499172 -0.000003951565008883876032 -0.000003289001227759329125
522.000000 0.000003523226209514002982 0.000003217023613460285612 -0.000002280310601147041768 -0.000007937509561911897121 -0.000003768064385192366534 -0.000003135388025711569247
523.980000 0.000003371181412592062401 0.000003074003575483115481 -0.000002266107446052424041 -0.000007663927089555580682 -0.000003595995802834124355 -0.000002991094182303843326
