0.000000 -0.000000000000000000000000 -0.000000000000000000000000 -0.000000000000000000000000 -0.000000000000000000000000 -0.000000000000000000000000 -0.000000000000000000000000
2.000000 0.000372027767329865101473 0.000014115137841552084338 -0.000533562052796820746742 -0.001106688370405893443241 0.000247465834102002138050 0.000234464191535153118184
4.000000 0.000261024829406029858919 0.000093212212721797101165 -0.000083998699228856176110 -0.000261349961784679155410 0.000197739407744926146224 0.000180471320073601195844
6.000000 0.000133710399606322714655 0.000040395451339896882041 -0.000026585881222652327737 -0.000095170983919817947190 0.000107277647973184450301 0.000098148596471501797951
8.000000 0.000066550711605827287884 0.000013170719425915844642 -0.000012110592279849082960 -0.000039572131049567288886 0.000056335224006376295909 0.000051695663671930250143
10.000000 0.000033734859624296915123 0.000003119570311458328407 -0.000006361976839983907308 -0.000017775166305523106095 0.000029909163138663010575 0.000027452946359449376720
12.000000 0.000017756697151475509162 0.000000408780007640714472 -0.000003114794291193755778 -0.000008095907015031748909 0.000016319770972446682143 0.000014931122839134472005
14.000000 0.000009866422644503867366 0.000000211538015953459831 -0.000001064511090314430625 -0.000003357866413273545157 0.000009282670520504342766 0.000008439141601576999525
16.000000 0.000005860058622804151113 0.000000574473285018700833 0.000000163337231986577780 -0.000000934275898300707306 0.000005568419901302034162 0.000005020215228270170891
18.000000 0.000003633319509537453785 0.000000766204388870769564 0.000000685287183789433029 0.000000153587365774173937 0.000003459776929632675119 0.000003093249402953782964
20.000000 0.000002366491105188113678 0.000000827680542265276073 0.000000876329282336998307 0.000000627553235864117509 0.000002241106252489171101 0.000001988213514789812036
22.000000 0.000001526659598572026242 0.000000701814611134292898 0.000000786696137257224199 0.000000680795029090230584 0.000001441994615543791733 0.000001271707710671930751
24.000000 0.000000968620713094256972 0.000000528079818198178846 0.000000615434795158462370 0.000000582826063011841253 0.000000916339823618272064 0.000000804363952709032407
26.000000 0.000000566540937218925248 0.000000328651324688524184 0.000000403476670946625706 0.000000407880168484328884 0.000000545601172742463585 0.000000477216821712963186
28.000000 0.000000351236982724456928 0.000000230035770901792193 0.000000300088719638637267 0.000000325748284499825444 0.000000342086407400339750 0.000000298009974899140209
30.000000 0.000000208920821129879063 0.000000151709593767007927 0.000000217175714760835281 0.000000254630353134287288 0.000000208566906336248886 0.000000180896803449385001
32.000000 0.000000120824032378085763 0.000000100179118396208096 0.000000163569498576517445 0.000000208401661330602018 0.000000125772788011708162 0.000000108411577491099981
34.000000 0.000000068193340771115657 0.000000069327709427245219 0.000000132915696614932850 0.000000183041173931949506 0.000000076029926373572866 0.000000064880743735223862
36.000000 0.000000010317343979357967 0.000000020819834605673113 0.000000082124223417477304 0.000000135667588454332229 0.000000025390048591407221 0.000000020730760758361014
38.000000 -0.000000057751969835570818 -0.000000045876361507308016 0.000000010749869508691076 0.000000066371655352095740 -0.000000031337987499588766 -0.000000028656581360422589
40.000000 -0.000000059602603796288577 -0.000000040558999934338098 0.000000020473452350817220 0.000000080053536497835655 -0.000000034536012995413409 -0.000000031528041013601443
42.000000 -0.000000084537106370482614 -0.000000063571330091043786 -0.000000001621150091127485 0.000000060780160373590410 -0.000000055151839952418492 -0.000000049564719359231842
44.000000 -0.000000105360290627842901 -0.000000083498712778637829 -0.000000020365003214313525 0.000000044978962641301796 -0.000000071930736120404654 -0.000000064207653170899101
46.000000 -0.000000075783370210816432 -0.000000046132814548945318 0.000000025542309030624566 0.000000095399655587239564 -0.000000048760995355586209 -0.000000044204520406013871
48.000000 -0.000000120831444603413144 -0.000000095014699423940878 -0.000000025822252478610288 0.000000046060939831893294 -0.000000084154779586940027 -0.000000075022368797379022
50.000000 -0.000000089611556994675819 -0.000000056757834654469362 0.000000020974154603184129 0.000000097420214615855782 -0.000000059389604625851182 -0.000000053582491266162247
52.000000 -0.000000253250253959096133 -0.000000241644021159151204 -0.000000183386810468885886 -0.000000108842454209453614 -0.000000187882150037198990 -0.000000165324703697071628
54.000000 -0.000000260447491124267235 -0.000000247868315737390763 -0.000000186886407968109495 -0.000000109202263460645463 -0.000000193360918501123565 -0.000000170104739850114936
56.000000 -0.000000293310440113912516 -0.000000283392800356573280 -0.000000223217248315261513 -0.000000143100562891132372 -0.000000218796093669507483 -0.000000192262694465094179
58.000000 -0.000000255539968950327464 -0.000000237654465629364893 -0.000000167811418438409510 -0.000000082943537640567680 -0.000000188736607051832416 -0.000000166288883644914170
60.000000 -0.000000254664099868434795 -0.000000234700201023798627 -0.000000160927898604861302 -0.000000072596105619626988 -0.000000187719972712112954 -0.000000165442239706084574
62.000000 -0.000000149882832398076096 -0.000000112174257229639673 -0.000000019016024116893112 0.000000076329766111609701 -0.000000104733946459150176 -0.000000093492055614568952
64.000000 -0.000000222479094092538230 -0.000000192995189967363016 -0.000000106242113255922037 -0.000000009816688566076451 -0.000000161430905156961675 -0.000000142854585078100376
66.000000 -0.000000137617338851073628 -0.000000093289615539873194 0.000000010020446289355380 0.000000112889495690841602 -0.000000094015157391354737 -0.000000084431414339880668
68.000000 -0.000000071041917671808656 -0.000000014689233375237559 0.000000102446732968342251 0.000000211141168541354822 -0.000000041155058982326607 -0.000000038624520299222425
70.000000 -0.000000109309219563235779 -0.000000056579162651264600 0.000000058975167819114087 0.000000169995057219370922 -0.000000070858052388818353 -0.000000064469038859472723
72.000000 -0.000000151886248817412828 -0.000000103019163683547621 0.000000010552687654561397 0.000000123724892247476699 -0.000000103832919866377775 -0.000000093215605692164688
74.000000 -0.000000174097961845066765 -0.000000126428192870892364 -0.000000011961799400231719 0.000000104195007173543075 -0.000000120777132331041942 -0.000000108004477402635684
76.000000 -0.000000145026436725006798 -0.000000091199087153069646 0.000000031301192245326138 0.000000151899980500407541 -0.000000097627397921750718 -0.000000087906071638022590
78.000000 -0.000000123062128856992316 -0.000000063839443772532071 0.000000066071445056153357 0.000000191140103217792400 -0.000000079884367176437847 -0.000000072587337302382601
80.000000 -0.000000128914874520268739 -0.000000068380509987013600 0.000000064762276861798283 0.000000193214526224647988 -0.000000084191798530961252 -0.000000076404007049255203
82.000000 -0.000000080764558902845146 -0.000000010660958186570601 0.000000133861378617207423 0.000000267623110904902518 -0.000000045766424884988398 -0.000000043174877392191036
84.000000 -0.000000130875558247495217 -0.000000065955089578123706 0.000000075465109135808226 0.000000211272068177220226 -0.000000084866859018187167 -0.000000077194040203130686
86.000000 -0.000000131396584158292639 -0.000000064434912390863849 0.000000081083548991868052 0.000000220641015931883915 -0.000000084734959633560191 -0.000000077135019705748988
88.000000 -0.000000202808460686896524 -0.000000144137395489758360 -0.000000004689058836826719 0.000000136377918265588609 -0.000000140441128088853248 -0.000000125583191301359366
90.000000 -0.000000134481086374643909 -0.000000063272224265003606 0.000000090494053673405933 0.000000237538078797327794 -0.000000086167514120571452 -0.000000078563075772287141
92.000000 -0.000000108660490179186748 -0.000000031421348723192938 0.000000130412752440211379 0.000000282153002189652324 -0.000000065456531398107902 -0.000000060660672403427636
94.000000 -0.000000200747215889745354 -0.000000134738092284009738 0.000000018066608139702401 0.000000170611979025729707 -0.000000137494587824827885 -0.000000123292333327197161
96.000000 -0.000000201076511610935451 -0.000000132337423180713475 0.000000025116119351423468 0.000000181563729564614924 -0.000000137197182582657983 -0.000000123200920343382306
98.000000 -0.000000216091755338830316 -0.000000147077956286216497 0.000000012754726953606718 0.000000172635995477779118 -0.000000148476680057112405 -0.000000133101610904194738
100.000000 -0.000000190030133062161439 -0.000000115089768081399362 0.000000052781244424172950 0.000000217430841516796601 -0.000000127541764322676231 -0.000000114953826148228849
102.000000 -0.000000303453424140900450 -0.000000242065064247907894 -0.000000085438384213186391 0.000000079703706096213601 -0.000000216043064431256229 -0.000000192066066538085457
104.000000 -0.000000250270741347599205 -0.000000179035077334679079 -0.000000010351203544428283 0.000000160698802119387704 -0.000000173443958701502901 -0.000000155086098858525545
106.000000 -0.000000326039782334261201 -0.000000263389634749008022 -0.000000100978454606277767 0.000000071690659736644011 -0.000000232733528210023282 -0.000000206701011263889600
108.000000 -0.000000113221400413904053 -0.000000016918874616230386 0.000000180806815432042816 0.000000364436732044555895 -0.000000064727115935179829 -0.000000060880520005422818
110.000000 -0.000000175837850025087952 -0.000000086640422547573921 0.000000106369460328489203 0.000000291934032530115526 -0.000000113639323731054254 -0.000000103350469767022231
112.000000 -0.000000152153084891464391 -0.000000056623381936828706 0.000000144468539346593670 0.000000334423586496188391 -0.000000095146221238204026 -0.000000087394711983819828
114.000000 -0.000000225889618867353675 -0.000000137701030777829693 0.000000058201411286039382 0.000000250179186887500627 -0.000000152191405648932564 -0.000000137204876708901610
116.000000 -0.000000361946326054066850 -0.000000290889348744356881 -0.000000109707138814034504 0.000000082135114586295630 -0.000000258464628470855827 -0.000000229645547496799820
118.000000 -0.000000400492840631248220 -0.000000332585938308191215 -0.000000152321492179547840 0.000000042324977936470216 -0.000000288761813215601872 -0.000000256022938095123020
120.000000 -0.000000460736562331814044 -0.000000398847628981938693 -0.000000222172556615548072 -0.000000024987961343068516 -0.000000335341900783241778 -0.000000296624789121566407
122.000000 -0.000000382228433887402785 -0.000000305990258633358125 -0.000000113104884222467654 0.000000090663701821105690 -0.000000273196646206686039 -0.000000242756720072225439
124.000000 -0.000000470002452344596191 -0.000000403624098843915760 -0.000000218106821089892160 -0.000000012591950399084525 -0.000000341508897028447563 -0.000000302274761374571024
126.000000 -0.000000351606937088585580 -0.000000265939255914108012 -0.000000058856202878296377 0.000000154770120014807712 -0.000000247882271318329222 -0.000000220917580421900393
128.000000 -0.000000296135296407337972 -0.000000199721971660505963 0.000000020336793586583556 0.000000240086800527981008 -0.000000203914724911414136 -0.000000182797570508943421
130.000000 -0.000000296762821655607982 -0.000000197305869835062050 0.000000027761835751069588 0.000000251625108450069394 -0.000000204116774987242259 -0.000000183130386305823280
132.000000 -0.000000237827239480169236 -0.000000127521763393659948 0.000000110717397827239821 0.000000340814392681326770 -0.000000157500308432657289 -0.000000142654102409825960
134.000000 -0.000000325414881728176832 -0.000000226463862017852210 0.000000003150724326964990 0.000000234452396486533681 -0.000000226599838967119401 -0.000000202511265030611917
136.000000 -0.000000293642388363772971 -0.000000187254988657244179 0.000000052119074685607786 0.000000289106627559354320 -0.000000200803694170516525 -0.000000180218090304181775
138.000000 -0.000000409835076272299441 -0.000000317065289748834595 -0.000000088894037860649151 0.000000148908655381334199 -0.000000291534375645554149 -0.000000259243543227810277
140.000000 -0.000000421739764437360599 -0.000000328351238283065536 -0.000000097323955893759547 0.000000144202175910035611 -0.000000300793419837339181 -0.000000267271564412576295
142.000000 -0.000000452275431821150234 -0.000000359274810249521922 -0.000000126629726945522975 0.000000118486804856195049 -0.000000324026425618038515 -0.000000287792118024328128
144.000000 -0.000000588766988186180466 -0.000000512983395676303939 -0.000000294822288549909913 -0.000000049487198014265837 -0.000000431068316961824745 -0.000000380883065818634640
146.000000 -0.000000491690334645796525 -0.000000398221495990492269 -0.000000160094380805346042 0.000000093456398049964053 -0.000000353367615322494055 -0.000000313641110848586192
148.000000 -0.000000589752482406596726 -0.000000507508433827266589 -0.000000278278317386840963 -0.000000023474733958814877 -0.000000430053205877082548 -0.000000380364078401072770
150.000000 -0.000000578907020827804165 -0.000000492579808005108111 -0.000000256807041366197749 0.000000002811421783554609 -0.000000421204760221016461 -0.000000372698308300201022
152.000000 -0.000000505243496733152722 -0.000000405586755145393949 -0.000000154275847892383937 0.000000112079123261932369 -0.000000363161371034924202 -0.000000322324560518458506
154.000000 -0.000000305768007743773848 -0.000000172957223150350327 0.000000113444257802173565 0.000000391338421606384268 -0.000000205177581169221144 -0.000000185447684851389475
156.000000 -0.000000437326738232674324 -0.000000320399228159169550 -0.000000047667140169769296 0.000000230180930822475820 -0.000000308298470866890665 -0.000000275187753028599822
158.000000 -0.000000291110826397560786 -0.000000151628563216941090 0.000000146300039676755809 0.000000433501288234937847 -0.000000192727434287533819 -0.000000174563548651987017
160.000000 -0.000000347644110024840288 -0.000000213686752723107368 0.000000081360429147276163 0.000000371461572395363114 -0.000000236815940730940638 -0.000000212978482728751458
162.000000 -0.000000332585046573916509 -0.000000194705600452179329 0.000000106958536219551757 0.000000401881949848855417 -0.000000224685680312323820 -0.000000202343161505537244
164.000000 -0.000000354100831570798534 -0.000000217852652772310553 0.000000084808569049420085 0.000000383200342864727796 -0.000000242166088336749808 -0.000000217395354576897844
166.000000 -0.000000615034732227588259 -0.000000513130225296114630 -0.000000242951759057603339 0.000000050634269281486431 -0.000000447826625371393395 -0.000000396253176004822527
168.000000 -0.000000476794023436425473 -0.000000349470776939773606 -0.000000052314784660476938 0.000000250720791982272632 -0.000000337260368549945672 -0.000000300711063778298912
170.000000 -0.000000487280492321735662 -0.000000358367592440466449 -0.000000057380443082463164 0.000000250046173976045257 -0.000000344408664122841240 -0.000000307116991192155622
172.000000 -0.000000607823073256438566 -0.000000492842727248133488 -0.000000203397175871404525 0.000000104885372079579105 -0.000000438416038196933207 -0.000000389033950400365176
174.000000 -0.000000365859702326179523 -0.000000212809546634813877 0.000000116539282290390674 0.000000436780515873731571 -0.000000248309091015057244 -0.000000223990963691173811
176.000000 -0.000000571029728245807550 -0.000000444114687085805635 -0.000000138804765698309551 0.000000179004382715603731 -0.000000409133214056667957 -0.000000363970804076026555
178.000000 -0.000000805195352124821433 -0.000000709934426173639550 -0.000000434065389433545368 -0.000000120321157743917773 -0.000000593531737912533737 -0.000000524174353776507213
180.000000 -0.000001032263536194087352 -0.000000967269575658103835 -0.000000718754858798652272 -0.000000407464858298769449 -0.000000771065790674032619 -0.000000678599746171054155
182.000000 -0.000001135453447034040537 -0.000001084237836663805703 -0.000000847149984949561263 -0.000000535509007116685624 -0.000000852164832106242794 -0.000000748813660839379934
184.000000 -0.000001095663086269245598 -0.000001037635949735099755 -0.000000791200247237114049 -0.000000474483931755011357 -0.000000821107353060734967 -0.000000721608996983691256
186.000000 -0.000000960403680763879675 -0.000000879405424590721183 -0.000000608160985571081035 -0.000000282505886532472822 -0.000000714030102620609812 -0.000000628846589343761477
188.000000 -0.000000924190070391469679 -0.000000835281720488509356 -0.000000554549634529695013 -0.000000224331937219329927 -0.000000685368514576096500 -0.000000603988707023577340
190.000000 -0.000000920872968335196699 -0.000000829353736165688166 -0.000000543848123586052948 -0.000000209549122541040666 -0.000000682783902858807549 -0.000000601809132782627621
192.000000 -0.000000729764370439207985 -0.000000610074147343063502 -0.000000293816417887816200 0.000000050826846898084523 -0.000000532106833276622608 -0.000000470622347236007260
194.000000 -0.000000504095732821066355 -0.000000349445968723598311 0.000000003387946125393332 0.000000359063777175880174 -0.000000354461968498332622 -0.000000316369881618868435
196.000000 -0.000000539431053693751921 -0.000000388216286118217416 -0.000000036315656157849846 0.000000322494737213128474 -0.000000381621938815711192 -0.000000339999408887128784
198.000000 -0.000000741955622489168524 -0.000000617065453983115595 -0.000000289723611264086608 0.000000065828002793964010 -0.000000540951508516885710 -0.000000478570532182507331
200.000000 -0.000000726474749802839997 -0.000000598025336713990790 -0.000000265321977958704468 0.000000093754757460590854 -0.000000528933975197086599 -0.000000467962904548044308
202.000000 -0.000000965248750827295924 -0.000000868055819338591077 -0.000000564705547866545912 -0.000000209531585655489949 -0.000000715760969573320146 -0.000000630584178845910987
204.000000 -0.000000719657504094259069 -0.000000585152229781101975 -0.000000242838814811483406 0.000000123757312109139833 -0.000000522448112378921145 -0.000000462648476463083984
206.000000 -0.000000440124823260081386 -0.000000263047503874014452 0.000000123432562025821154 0.000000502768764749622846 -0.000000301913812648347704 -0.000000271082874406668207
208.000000 -0.000000455948644624013203 -0.000000278129876104078263 0.000000110508770052019377 0.000000492836480482752188 -0.000000313209138654315621 -0.000000281137437742240580
210.000000 -0.000000620735717488264003 -0.000000463304518853978621 -0.000000093882610874910756 0.000000286087843665009643 -0.000000442830163288086769 -0.000000394101864451457391
212.000000 -0.000000737254370574430201 -0.000000594901910311058192 -0.000000239161534335613497 0.000000139533161303988383 -0.000000534872428307787729 -0.000000474128057941382535
214.000000 -0.000000946050714892790594 -0.000000832736386262930194 -0.000000503842211201386918 -0.000000128822104784760376 -0.000000699043606730522714 -0.000000616654622648205930
216.000000 -0.000000906301501738786214 -0.000000785719295439001885 -0.000000448013879586782857 -0.000000068953360066874447 -0.000000667295711760927025 -0.000000589052140485137093
218.000000 -0.000001258912257625832857 -0.000001187047763522521672 -0.000000895844483766132476 -0.000000524848894995537572 -0.000000943932496312307305 -0.000000829719204192751207
220.000000 -0.000001149692442059649421 -0.000001058114798858202748 -0.000000746659964425300238 -0.000000369379617910956965 -0.000000857173610040255570 -0.000000754768524582581870
222.000000 -0.000000523696428862528062 -0.000000339252364703204923 0.000000065886311001671118 0.000000466973689849820155 -0.000000363914451677814644 -0.000000326404444721083156
224.000000 -0.000000252715501290346365 -0.000000029666427450064263 0.000000415971791307482565 0.000000828783681633056436 -0.000000150852638834674913 -0.000000140902100839544109
226.000000 0.000000034363225233123859 0.000000300297046204313493 0.000000789962535014646257 0.000001214932419314050780 0.000000074755745537997065 0.000000055015350943667190
228.000000 -0.000000139783771492067637 0.000000102001081637958552 0.000000568220990794706038 0.000000988614633145300648 -0.000000062780878295675371 -0.000000064362198563046392
230.000000 -0.000000277900714149885302 -0.000000057558972274391728 0.000000389024067801201379 0.000000806354568085991914 -0.000000172895595705009135 -0.000000159515791119041157
232.000000 -0.000000579678335074100886 -0.000000402808390052104148 0.000000002543999365868910 0.000000412863791392406694 -0.000000408892917932147844 -0.000000364413348763139721
234.000000 0.000000185090472963104033 0.000000478680320195138754 0.000000998535907469582965 0.000001434484392985191765 0.000000190833976409489997 0.000000155899837911480538
236.000000 0.000000181977899638547772 0.000000479108499253576480 0.000001001919210593948298 0.000001439117367038473417 0.000000188740210761435003 0.000000153615151104187284
238.000000 -0.000000511834698721194020 -0.000000312507395315271497 0.000000115205892049317406 0.000000533824607165575335 -0.000000353841217194261307 -0.000000318200071112997765
240.000000 -0.000000952320346677493987 -0.000000815575548134260120 -0.000000449000696158006843 -0.000000042639789642027137 -0.000000700001581586893021 -0.000000618946153164386478
242.000000 -0.000000318024017457866675 -0.000000086338188266173257 0.000000376254351283729784 0.000000807200904796437206 -0.000000198481588603642878 -0.000000183689681064180117
244.000000 -0.000000398518197888485491 -0.000000172072730971848951 0.000000283856944210345525 0.000000712708579597534907 -0.000000263002634259984572 -0.000000240599566684253263
246.000000 -0.000000183451155615589823 0.000000070583883549878150 0.000000556245694561619391 0.000000994211523515385375 -0.000000093622294103246789 -0.000000092628837762740734
248.000000 0.000000069982045332223503 0.000000365840015859661680 0.000000892888877636958770 0.000001341329137817314903 0.000000107120247021983183 0.000000080989421343623204
250.000000 -0.000000334546801585972659 -0.000000099693596102138551 0.000000369276708731384950 0.000000806738986233339482 -0.000000210570117663936068 -0.000000194435828481456750
252.000000 -0.000000139274774397211107 0.000000124573844587583742 0.000000623060706298428119 0.000001068420340638316297 -0.000000057562929970965929 -0.000000061548378415582459
254.000000 -0.000000265491501080517968 -0.000000020663037292178307 0.000000461162059331630220 0.000000904981647104097424 -0.000000156481327404861160 -0.000000147325192628209065
256.000000 0.000000064350401885529777 0.000000354830865848233110 0.000000883060090534041174 0.000001338307738757734788 0.000000102562376953046667 0.000000078376988064481108
258.000000 0.000000360197006118705581 0.000000694341621297556599 0.000001265607694410146444 0.000001730401941000041223 0.000000333923787337030745 0.000000279575735523296697
260.000000 -0.000000425830751416433022 -0.000000207816548305568554 0.000000251446869097006147 0.000000693962197408783213 -0.000000282921795597566969 -0.000000256003552778220239
262.000000 -0.000000157739650442886432 0.000000101343571062048991 0.000000601477025946501050 0.000001053858267921604141 -0.000000071971112080039305 -0.000000072879428460203540
264.000000 -0.000001370947559288960330 -0.000001289265546388314889 -0.000000964041183961815228 -0.000000550667705843529652 -0.000001027946464749461450 -0.000000903012818360034943
266.000000 -0.000001025704473046558443 -0.000000890446187029416629 -0.000000512049123956810354 -0.000000085573696055581777 -0.000000755418564376690907 -0.000000666733219050538240
268.000000 -0.000001021298331757063490 -0.000000885497726637295881 -0.000000505643698214266819 -0.000000078040744601476006 -0.000000753487845147391909 -0.000000664913750507043544
270.000000 -0.000001027672454709864377 -0.000000892689319128558161 -0.000000512738781348125190 -0.000000084041354845447201 -0.000000758586283458383243 -0.000000669274388232900331
272.000000 -0.000001236525172761186984 -0.000001134681365445950322 -0.000000785074183493229464 -0.000000361283725514688006 -0.000000923288835889700498 -0.000000811683008982638454
274.000000 -0.000000902340520146626643 -0.000000750911211652905480 -0.000000351875238687051117 0.000000083587018244350998 -0.000000661038834242769543 -0.000000583926236874670381
276.000000 -0.000001081158114589091313 -0.000000952530123654476937 -0.000000575251904848914887 -0.000000142860760002834173 -0.000000799478614332005745 -0.000000704758508219245962
278.000000 -0.000001364969301228948961 -0.000001274819186380294488 -0.000000935415309776296297 -0.000000510702741107774491 -0.000001021413000833849318 -0.000000897936773621111790
280.000000 -0.000000755257238570924652 -0.000000573584363962097214 -0.000000142907010452665081 0.000000304045142555889650 -0.000000540948768913055421 -0.000000480964170906381660
282.000000 -0.000000461128773888090060 -0.000000235359826396881961 0.000000239380210956192238 0.000000697040182268255148 -0.000000309853714733031535 -0.000000280263228634989584
284.000000 -0.000000869671750508507257 -0.000000703199377570770783 -0.000000286952209901557072 0.000000157326402398159766 -0.000000632534488930707985 -0.000000560264714470048827
286.000000 -0.000001067635751192424857 -0.000000926883966053877793 -0.000000536837335907312367 -0.000000098543234345009846 -0.000000788612798315529306 -0.000000696175367445802129
288.000000 -0.000001081466366616877269 -0.000000939501781760444545 -0.000000547408989701404202 -0.000000106678503843916298 -0.000000797133452846212034 -0.000000704149936029103677
290.000000 -0.000001295901370913781735 -0.000001185952616395414689 -0.000000824126461281691641 -0.000000388961523573405071 -0.000000967281311055049843 -0.000000851893345181763792
292.000000 -0.000001643708898394510802 -0.000001585103639709879934 -0.000001273530331806565927 -0.000000849202556396246898 -0.000001242027046996229109 -0.000001090251240976954153
294.000000 -0.000001345092172853391862 -0.000001241531903918675730 -0.000000884032525672339029 -0.000000447446688876385818 -0.000001005439105825986102 -0.000000884920444831587548
296.000000 -0.000001307862111075323352 -0.000001198029726715114395 -0.000000833752636602924713 -0.000000394338654178268841 -0.000000974658887882156234 -0.000000858212233809270849
298.000000 -0.000001466235366899447350 -0.000001376522709804438175 -0.000001032066351040611472 -0.000000596297830127348097 -0.000001098489700259012996 -0.000000966173316119036862
300.000000 -0.000001465641224041727841 -0.000001371876553790122408 -0.000001023823864399854403 -0.000000587092614736076347 -0.000001098202649764310546 -0.000000966474301554062286
302.000000 -0.000001644401457062205225 -0.000001574331770780521542 -0.000001248670286143070643 -0.000000814791544616655598 -0.000001237224289006319188 -0.000001087706339892884956
304.000000 -0.000001599753513549711412 -0.000001523995190109055131 -0.000001192112170776530248 -0.000000756212201634535737 -0.000001203220420538362003 -0.000001057923453578919403
306.000000 -0.000001922768121987231212 -0.000001894523141228632627 -0.000001608391732293686653 -0.000001181474027435996181 -0.000001457259103433768103 -0.000001278399145411935291
308.000000 -0.000001695053831755701833 -0.000001635679992464303986 -0.000001317500113713180326 -0.000000882521466625105618 -0.000001279558229482919303 -0.000001123489664136323927
310.000000 -0.000001677240843407675518 -0.000001615638349740558285 -0.000001293464371421257665 -0.000000856017852658207917 -0.000001265153375155171708 -0.000001110853954643218471
312.000000 -0.000002375456367024853396 -0.000002420805396933145133 -0.000002201839299016890022 -0.000001785760733120711813 -0.000001813995521011382504 -0.000001586497746953522831
314.000000 -0.000001606218473415530818 -0.000001526663373936916212 -0.000001186186035132981869 -0.000000742153340647746110 -0.000001206147490695470045 -0.000001060911261947215938
316.000000 -0.000000257595768481178749 0.000000026885088660716007 0.000000568894788865500818 0.000001059294665832333735 -0.000000143514212346337424 -0.000000139241794893726318
318.000000 -0.000000804543543774311004 -0.000000606563848899015553 -0.000000146291451470734210 0.000000328706151123148741 -0.000000572759830767543266 -0.000000510522821111220942
320.000000 -0.000000054183223676980744 0.000000244357491168493915 0.000000806457345137304981 0.000001304242547231868717 0.000000014363034438169272 0.000000001561536701231940
322.000000 -0.000000698293187115644675 -0.000000491107237234376178 -0.000000019053129730519291 0.000000460662168058836364 -0.000000489598583035080278 -0.000000436693144691518014
324.000000 -0.000000269819905496455159 -0.000000002096162265263428 0.000000532481309200141231 0.000001028349756039863946 -0.000000153808715096758396 -0.000000144533251950686273
326.000000 -0.000001897316925686180028 -0.000001866964761149215278 -0.000001565723562467526424 -0.000001120365155346474824 -0.000001434280287473115267 -0.000001256981128626997014
328.000000 -0.000002952546825705298953 -0.000003073401516314013827 -0.000002923470281432462967 -0.000002513368782863626311 -0.000002266133543159981672 -0.000001980139767469312419
330.000000 -0.000001901314987664064468 -0.000001871797340956481573 -0.000001570759507164417807 -0.000001124609594205567345 -0.000001439820950024815249 -0.000001261560833906027766
332.000000 -0.000002341434347897671451 -0.000002378794554801919480 -0.000002142580798910585878 -0.000001710802725779852043 -0.000001788758533609772200 -0.000001563831973779211871
334.000000 -0.000001490576528875220247 -0.000001399639113795883185 -0.000001038533030428167799 -0.000000580846344272533793 -0.000001123643506747642506 -0.000000986541777528129098
336.000000 -0.000001681628611287221720 -0.000001618009706905639858 -0.000001282067233526922692 -0.000000826605834924388910 -0.000001270002808600906493 -0.000001113565354251204898
338.000000 -0.000000595959732807784542 -0.000000370632374204500925 0.000000124771353773422564 0.000000616367052942494890 -0.000000416751726098806165 -0.000000372807710256681389
340.000000 -0.000000126413654058419755 0.000000174504331827551582 0.000000743366310689044706 0.000001251740677622973547 -0.000000047833679994353540 -0.000000053647075567870182
342.000000 -0.000000560566291453803396 -0.000000318783241958455794 0.000000189509334556705046 0.000000683061296407404709 -0.000000389978532461100514 -0.000000351134330252614003
344.000000 -0.000001414262275556960804 -0.000001289192016439504140 -0.000000896870437368995670 -0.000000428245550314331006 -0.000001058273012067962569 -0.000000932879546340764869
346.000000 -0.000000551150612832425340 -0.000000294020053154530800 0.000000228572137190448725 0.000000727666728886467883 -0.000000376332515732618437 -0.000000341299809744552298
348.000000 -0.000001586510546685171415 -0.000001479443280118262163 -0.000001102284630476450694 -0.000000631147138497796794 -0.000001185006819042919103 -0.000001044099006236985293
350.000000 -0.000000648417202041337478 -0.000000406491253151638778 0.000000104865950982792408 0.000000606831692241129566 -0.000000451218042748808496 -0.000000405982619076130220
352.000000 -0.000000491607917821717469 -0.000000225364048423497224 0.000000312964807006976731 0.000000825245839122972033 -0.000000321830082264370362 -0.000000293887852238656652
354.000000 -0.000001764430477768188911 -0.000001683933265374237529 -0.000001327612535115598661 -0.000000855579558810804263 -0.000001326058580963644596 -0.000001166099447633120440
356.000000 -0.000002391054790458251996 -0.000002398636298693872828 -0.000002131723314328083320 -0.000001682317778771531268 -0.000001825451429227232073 -0.000001600252252665170066
358.000000 -0.000001317556228308109216 -0.000001163398040239993695 -0.000000735526646323030816 -0.000000247898773871055052 -0.000000978684633640388352 -0.000000865497246543339743
360.000000 -0.000001449717559093948580 -0.000001320247570331230387 -0.000000914670594383586872 -0.000000430285353388264075 -0.000001083805924943968033 -0.000000955606605241704807
362.000000 -0.000000762825888690696945 -0.000000524486003674001864 -0.000000011186342706247583 0.000000499456426122213466 -0.000000540599606797940092 -0.000000485467384131431673
364.000000 -0.000001711182330701112552 -0.000001612281617486841846 -0.000001236243552600590119 -0.000000755646419540316547 -0.000001287988011721270808 -0.000001134148429454486639
366.000000 -0.000001559408182138995653 -0.000001444736201852134456 -0.000001049861671486978384 -0.000000562917764069466339 -0.000001168926398271056878 -0.000001029329712747572890
368.000000 -0.000001926810180068463977 -0.000001860461973953378392 -0.000001514558804827348041 -0.000001038923475771984393 -0.000001457213693546705358 -0.000001280396309547210927
370.000000 -0.000001936592665342686857 -0.000001870665791742511239 -0.000001523213987040449320 -0.000001044836773478974074 -0.000001465622412730839488 -0.000001287921917673167973
372.000000 -0.000001150181283472608586 -0.000000963604988622829535 -0.000000494378367359746079 0.000000015454791465895509 -0.000000842434583753093773 -0.000000747775438449815164
374.000000 -0.000002050537520058135094 -0.000002000862203872537091 -0.000001664733373861845818 -0.000001183071566965548879 -0.000001552250722491064510 -0.000001363109730239308468
376.000000 -0.000001663172781472881196 -0.000001559910723273194091 -0.000001168954337258527166 -0.000000673039530342081124 -0.000001246115096596711354 -0.000001096217881203977122
378.000000 -0.000001535347789528513798 -0.000001413221812703232594 -0.000001001804955332612857 -0.000000498677228277345340 -0.000001144072375425732563 -0.000001007216160477162494
380.000000 -0.000002992994576439822061 -0.000003088741880780604864 -0.000002892391093880642178 -0.000002439234327338338402 -0.000002297931511861059931 -0.000002008133363820386025
382.000000 -0.000002689605047476999656 -0.000002748973049626484441 -0.000002508664849172393737 -0.000002038272268352910582 -0.000002054583247061593369 -0.000001795600135256539146
384.000000 -0.000002725753531911506458 -0.000002780516984050016115 -0.000002538230273591345593 -0.000002069397207795396305 -0.000002086182630276883975 -0.000001824355455609662912
386.000000 -0.000001621208517988120595 -0.000001512592617680249550 -0.000001107149332369438684 -0.000000598858790668741732 -0.000001215114971806850776 -0.000001067935919792107452
388.000000 -0.000001008954346500349754 -0.000000803217596031875309 -0.000000303942710445986978 0.000000225314803521261511 -0.000000736236782602516618 -0.000000653377986472051188
390.000000 -0.000001284675686848839729 -0.000001120405910567674862 -0.000000659211829054722672 -0.000000135180563599213713 -0.000000950433506220681762 -0.000000839088098500060790
392.000000 -0.000000547634441295510794 -0.000000275582456492313865 0.000000291986294817354990 0.000000840059025176447369 -0.000000372099218117269672 -0.000000336337300474041042
394.000000 -0.000000854297676097303605 -0.000000633161874319390722 -0.000000109898365965394800 0.000000433349846189069318 -0.000000612774961254583796 -0.000000544365541563379475
396.000000 -0.000000696769220312196003 -0.000000443580157722495327 0.000000108328234692022044 0.000000656068771218002630 -0.000000491233552474602731 -0.000000439763864957802784
398.000000 -0.000001583723309435048968 -0.000001461562109539300154 -0.000001038539525310811969 -0.000000519772490162837354 -0.000001192388494738900286 -0.000001048165288849495962
400.000000 -0.000002720058668255040355 -0.000002765732756930173329 -0.000002505930272188037636 -0.000002020579014110910575 -0.000002085524455905428315 -0.000001823723940350680349
402.000000 -0.000001599775401711915882 -0.000001488058191407974743 -0.000001068163547401714064 -0.000000543403957244263566 -0.000001204715618418643695 -0.000001056953455916773019
404.000000 -0.000001851208446942876306 -0.000001779804701865896049 -0.000001397623926056586610 -0.000000879862262410300052 -0.000001405128856236966747 -0.000001230128095865378029
406.000000 -0.000001438995500324996049 -0.000001302931020881464759 -0.000000856700006752937656 -0.000000323574282325668445 -0.000001079804829437602276 -0.000000948066913283783689
408.000000 -0.000001870412804554848705 -0.000001792468471588417769 -0.000001403389682093056343 -0.000000880743309902186938 -0.000001417600934570731635 -0.000001242232038697213473
410.000000 -0.000002572284946929554018 -0.000002592216202722103682 -0.000002299113533000504411 -0.000001796132105714553119 -0.000001967767556276848139 -0.000001720575868623727334
412.000000 -0.000001627406876849579376 -0.000001504143211865836307 -0.000001066473094902730334 -0.000000525133456245100717 -0.000001219639940361178424 -0.000001071838050214593059
414.000000 -0.000001798572618483373339 -0.000001699464746674539144 -0.000001283917012037472088 -0.000000744476104418988932 -0.000001353263664176781427 -0.000001187948830250062745
416.000000 -0.000001080160100014201723 -0.000000867013335219456926 -0.000000339351715833240080 0.000000226537696640944057 -0.000000786014201701151561 -0.000000696346870820157532
418.000000 -0.000001719749225895926202 -0.000001599077848410362024 -0.000001162231200722178343 -0.000000616299160106993341 -0.000001292140460468575771 -0.000001135491379521302124
420.000000 -0.000001960310029672480164 -0.000001878946722453167703 -0.000001478422298668258065 -0.000000939370756220966825 -0.000001484918828594114490 -0.000001301607343152325763
422.000000 -0.000002835426587337381673 -0.000002880134981924431336 -0.000002603767515645918487 -0.000002092299195631115785 -0.000002174490529371863926 -0.000001900452709198939168
424.000000 -0.000001931376157815232005 -0.000001827840428603510557 -0.000001406990266557710090 -0.000000860887708067852499 -0.000001457320119511116235 -0.000001279908532678981663
426.000000 -0.000000392097558936194447 -0.000000055202268559578750 0.000000597820570562193229 0.000001201268037843244840 -0.000000240134199627122235 -0.000000224273617399879411
428.000000 -0.000001284573417820223271 -0.000001079941477768802922 -0.000000554529340337405904 0.000000022638714168885452 -0.000000946507179346251565 -0.000000837369899059796811
430.000000 -0.000002904205265388795336 -0.000002936878940116133767 -0.000002645112083659762630 -0.000002119690838319447696 -0.000002224052608502279577 -0.000001946762054270925536
432.000000 -0.000002632598853022404839 -0.000002627764070171036665 -0.000002297816991538417507 -0.000001764061144209716096 -0.000002016805483740627813 -0.000001765827850375539588
434.000000 -0.000002173595033868367924 -0.000002091310144530706108 -0.000001684661130449553811 -0.000001130906762349933676 -0.000001651162414814643882 -0.000001449730055756547951
436.000000 -0.000001633409958953335178 -0.000001474824977783585225 -0.000000988181077655496551 -0.000000411270293709146472 -0.000001222855105027535199 -0.000001076809428466067076
438.000000 -0.000001844212256469962307 -0.000001714994450784434541 -0.000001254878317375536988 -0.000000679264758920206069 -0.000001385908805631309968 -0.000001218544534034293863
440.000000 -0.000001043460859045604089 -0.000000788979858597877864 -0.000000205393160153269066 0.000000399446603315802529 -0.000000754318640666272501 -0.000000671117652662148944
442.000000 -0.000001558365143784788792 -0.000001380181240640909663 -0.000000869898919946024758 -0.000000279720881751268500 -0.000001163346949610743678 -0.000001025758884135700736
444.000000 -0.000002741808448998832998 -0.000002724445156434182338 -0.000002374639737862343636 -0.000001819493129093133672 -0.000002092832020149653148 -0.000001834814192505430081
446.000000 -0.000001926954416915442886 -0.000001786792657784180910 -0.000001313409201010680682 -0.000000725772078030019947 -0.000001448427377708839808 -0.000001275676966739738229
448.000000 -0.000001989438257623081813 -0.000001855210274958197381 -0.000001386808579082444995 -0.000000798408626972103615 -0.000001499301419981054892 -0.000001320257734168901417
450.000000 -0.000002386737562522490626 -0.000002310379088043170616 -0.000001897408936271529593 -0.000001319106912786169904 -0.000001812295162674609036 -0.000001591712534645804267
452.000000 -0.000002892318905755839368 -0.000002893466268858000697 -0.000002552230186307312782 -0.000001985772170310727006 -0.000002209857034327255842 -0.000001936076237302036773
454.000000 -0.000002728349809982117700 -0.000002702742718783443782 -0.000002333922959324612001 -0.000001759176785536573341 -0.000002083037060391637514 -0.000001825976612655900004
456.000000 -0.000002562170924384910607 -0.000002514913139396297669 -0.000002120914826349267353 -0.000001537077421760391229 -0.000001952872581089763822 -0.000001712017527574409281
458.000000 -0.000003356796547341451326 -0.000003426528053556530448 -0.000003146330800886888998 -0.000002585921150527118714 -0.000002578750993718525114 -0.000002254841819141921820
460.000000 -0.000003939998663808118021 -0.000004092484317939666124 -0.000003890253867819919730 -0.000003342764536730913300 -0.000003035302072595026114 -0.000002651688572988429009
462.000000 -0.000002906618825303892382 -0.000002902956032408179408 -0.000002542926398134732532 -0.000001955827065280887354 -0.000002221432684141413423 -0.000001945881596932239403
464.000000 -0.000005536497205505534863 -0.000005887877132775599739 -0.000005882333211842236067 -0.000005371762656830954594 -0.000004283203233555923923 -0.000003742345117163045602
466.000000 -0.000004975740188827210840 -0.000005244803975135760615 -0.000005155930031686331566 -0.000004625409987354764209 -0.000003845946074327850823 -0.000003361471225411157456
468.000000 -0.000002685930991399998034 -0.000002620275512856660569 -0.000002193950319947787908 -0.000001578200059094958203 -0.000002034241843868393634 -0.000001787507238686301070
470.000000 -0.000002362320586218617670 -0.000002271049743469352038 -0.000001810331767689442457 -0.000001179438723702885362 -0.000001781198046411730957 -0.000001563310416061006503
472.000000 -0.000000240504002892250135 0.000000168437281428679326 0.000000941013566805610970 0.000001642544800017848292 -0.000000111553535381126380 -0.000000113767416308612407
474.000000 -0.000001877178138659320811 -0.000001710452021113164971 -0.000001172052106233065013 -0.000000518959028646445226 -0.000001401849898840533687 -0.000001233324272148816351
476.000000 0.000001262637401137229956 0.000001894376703847915454 0.000002897062599761111759 0.000003661167096538953361 0.000001069734115698403317 0.000000912572988320850056
478.000000 0.000000166549823303797828 0.000000637913186993718344 0.000001486371038717709487 0.000002221340382465774491 0.000000208913261718110992 0.000000164955309786046277
480.000000 -0.000002969248501639348890 -0.000002955667036415270811 -0.000002558163968168014570 -0.000001921500170546347820 -0.000002261641763519630213 -0.000001981415974890122702
482.000000 -0.000003116759997699891896 -0.000003118396942581216428 -0.000002739121559869015699 -0.000002109795871468486363 -0.000002384436291481863519 -0.000002088195261299784269
484.000000 0.000000342007944855223315 0.000000852176060082377501 0.000001739482500058314485 0.000002487185778000378157 0.000000339051857779577541 0.000000277216883932503084
486.000000 0.000000677216228153912716 0.000001219856192622222855 0.000002150256859725251924 0.000002915090967078801381 0.000000598546779031121829 0.000000506342293531448720
488.000000 -0.000000094603890034750403 0.000000334524309106893726 0.000001152703445227271746 0.000001891840145948394073 -0.000000020090144204838262 -0.000000030062262293083034
490.000000 -0.000001468553704585658691 -0.000001244176669169119923 -0.000000623225262642069789 0.000000077936015309798176 -0.000001098308302437247911 -0.000000965717800736023676
492.000000 -0.000002661461024903990744 -0.000002614344505918712349 -0.000002163423832562110926 -0.000001493998604057086661 -0.000002035787538861873345 -0.000001779183272766034083
494.000000 -0.000003283926638883796168 -0.000003325977438585823767 -0.000002967594227216491557 -0.000002324479845856050447 -0.000002537670437466833827 -0.000002214093330607866264
496.000000 -0.000003397237638838151602 -0.000003443560021977579441 -0.000003091596447444441256 -0.000002452085965349231271 -0.000002635538994394546469 -0.000002300571920068678109
498.000000 -0.000002293930292035638013 -0.000002150536741228152317 -0.000001622887658990939051 -0.000000951212572830416667 -0.000001770459652674953328 -0.000001552681653761096179
500.000000 -0.000003014555322204458759 -0.000002958645577376570503 -0.000002516764427551847905 -0.000001858097136654184333 -0.000002328728199737270342 -0.000002040128688085790511
502.000000 -0.000005662450381164932453 -0.000005971512923921251558 -0.000005891692245285243840 -0.000005310153887543915125 -0.000004401717484395349276 -0.000003843838614364089531
504.000000 -0.000006656773045198011632 -0.000007096070959804927705 -0.000007142115612724710454 -0.000006581681693867476509 -0.000005175776827957545726 -0.000004518641339075745453
506.000000 -0.000009220684112082410845 -0.000010044875001556618818 -0.000010465558954907643431 -0.000009984236999226755074 -0.000007194958921038074235 -0.000006269721008737963326
508.000000 -0.000009161090438343540138 -0.000009963619956626573734 -0.000010360099829244337071 -0.000009864093362066828768 -0.000007138867133580570413 -0.000006222905327579924189
510.000000 -0.000006450006049614416840 -0.000006846375734450556798 -0.000006833048843463940158 -0.000006230806842880221140 -0.000004994248295004716213 -0.000004362083319501885944
512.000000 -0.000008220696387133123552 -0.000008864376730500787339 -0.000009096488957668911796 -0.000008550117507887492082 -0.000006394890376287292603 -0.000005579697654557795212
514.000000 -0.000007836468106222442272 -0.000008402180871130174945 -0.000008563408337874819120 -0.000008004351519459341701 -0.000006099654289653560361 -0.000005326291784723599062
516.000000 -0.000008259639497274096577 -0.000008877868013653914583 -0.000009089125219483003640 -0.000008539009796666235740 -0.000006435220385056201022 -0.000005618476395595038635
518.000000 -0.000009958869188130719304 -0.000010836392409104070718 -0.000011295804461747148602 -0.000010791245862364950753 -0.000007769915907405363847 -0.000006775499692274008293
520.000000 -0.000007228853035340054440 -0.000007693659243797774792 -0.000007742040144810339149 -0.000007138928896531614984 -0.000005621109018844033343 -0.000004911054248920641305
522.000000 -0.000006352214337298539043 -0.000006691850623481859648 -0.000006612707773430242286 -0.000005976796414020345744 -0.000004932946531714791774 -0.000004311862049449504331
524.000000 -0.000006932925507421880460 -0.000007363425884177598210 -0.000007368621622737243855 -0.000006746137691289295756 -0.000005391491909296882661 -0.000004708065123294419846
526.000000 -0.000008180657855692973312 -0.000008782102206591919236 -0.000008953761612515071224 -0.000008360799624998969452 -0.000006363853413321448638 -0.000005554175602989395809
528.000000 -0.000010475030058107289490 -0.000011406815350627013371 -0.000011908488868926667020 -0.000011394648264949190929 -0.000008182662932353693244 -0.000007133678966102414885
530.000000 -0.000009471654834129586452 -0.000010244085448992169964 -0.000010581685532571116496 -0.000010021506471963302585 -0.000007388766751051882119 -0.000006446516485910614210
532.000000 -0.000005654800126091049563 -0.000005861472661532559631 -0.000005633164673202733719 -0.000004935233407371444639 -0.000004377731706900028471 -0.000003831956078764116922
534.000000 -0.000006848075698881764964 -0.000007222462217424300341 -0.000007157555011979507469 -0.000006491910847204912210 -0.000005317682538372001522 -0.000004648735118202160269
536.000000 -0.000006350186634409261968 -0.000006662756553318467682 -0.000006530195182084092010 -0.000005841871945428954538 -0.000004920727651019927926 -0.000004300246097121443944
538.000000 -0.000007025448417191172248 -0.000007425088507990954209 -0.000007378901416076944301 -0.000006709479341330708141 -0.000005459908247719454512 -0.000004769643871781462055
540.000000 -0.000008358134524206927555 -0.000008964186922158245521 -0.000009110648792592945539 -0.000008472180096871619531 -0.000006508312864184638872 -0.000005677992433934343060
542.000000 -0.000008240942680274976516 -0.000008842585054250364347 -0.000008970400795665645224 -0.000008313970628608605146 -0.000006412208510288066533 -0.000005591954134584068872
544.000000 -0.000010428248268730498711 -0.000011344841729326098645 -0.000011778680071994751053 -0.000011184266342287814058 -0.000008132695817132354449 -0.000007086208027804526736
546.000000 -0.000007997917400365523222 -0.000008544880423412815854 -0.000008613846511324967008 -0.000007934359179753775517 -0.000006223559569709008283 -0.000005429732110006557398
548.000000 -0.000004459581590186285380 -0.000004480963675241376022 -0.000004028987859120184648 -0.000003227881923679681058 -0.000003442462261280596047 -0.000003014894579967411635
550.000000 -0.000002423692059030087746 -0.000002150936835732400931 -0.000001399742238931045941 -0.000000521484036694560040 -0.000001839584283303591204 -0.000001621295973321325703
552.000000 -0.000003357375151564577950 -0.000003201316798186623282 -0.000002568637132251262877 -0.000001714958839978288931 -0.000002572604660888649487 -0.000002260653760655010357
554.000000 -0.000002621870899916107892 -0.000002366021383555463502 -0.000001625346715766074677 -0.000000739629516782830395 -0.000002003972863915280642 -0.000001764554743602034657
556.000000 -0.000003369681179567043372 -0.000003213905899472225273 -0.000002569315966645143291 -0.000001699840294693134116 -0.000002594250749950785851 -0.000002278127270075993548
558.000000 -0.000005435320879618957793 -0.000005581344375804289934 -0.000005232437784562987995 -0.000004426539818851978891 -0.000004228047183976500832 -0.000003696228655698332233
560.000000 -0.000005610114096431140798 -0.000005790968714036900064 -0.000005465000895592038494 -0.000004653221915593763066 -0.000004364229480714421334 -0.000003811761208726259147
562.000000 -0.000004106880630529221793 -0.000004083927040592422280 -0.000003546863638071176919 -0.000002681737321968856032 -0.000003192242966333785524 -0.000002789373287611331744
564.000000 -0.000005779297615873381826 -0.000005991211527988298891 -0.000005683209408731078686 -0.000004862211619333716281 -0.000004505480751058848937 -0.000003931448088837343858
566.000000 -0.000005517594721436643078 -0.000005676502492658712034 -0.000005316372595914966097 -0.000004479574132585434481 -0.000004301605223135229259 -0.000003755640577395815751
568.000000 -0.000005831214853548210474 -0.000006033541120216483834 -0.000005707737802078520076 -0.000004868832527157175239 -0.000004546935774297676177 -0.000003968169401445404481
570.000000 -0.000006695711208247074543 -0.000007019537342199337791 -0.000006804968507068600634 -0.000005977180378770091756 -0.000005223938246833617753 -0.000004556988209196443516
572.000000 -0.000007833729830200610497 -0.000008308294031442733728 -0.000008239239247452817455 -0.000007436802599977022328 -0.000006118624748666980580 -0.000005336072345521255168
574.000000 -0.000008333184924526930779 -0.000008862379850030016747 -0.000008845869331337607964 -0.000008049395858472138253 -0.000006510995451253867334 -0.000005678595145116338921
576.000000 -0.000007684095671473149122 -0.000008100843453888942003 -0.000007973903677743099150 -0.000007148767531445027000 -0.000006001713479561667488 -0.000005237970970972261702
578.000000 -0.000007413023461181726986 -0.000007796810192749027167 -0.000007628781712355720235 -0.000006788098346705187961 -0.000005798349802249425005 -0.000005058169097671080636
580.000000 -0.000006904538556824044706 -0.000007193368105871024573 -0.000006931718860498513904 -0.000006064815894207705391 -0.000005395514389931451478 -0.000004710248309823434644
582.000000 -0.000006478867588758415174 -0.000006693871486819581128 -0.000006353301414987010285 -0.000005457306781722359192 -0.000005053988700855872057 -0.000004414667972992962033
584.000000 -0.000005921189502536090948 -0.000006064313810514800812 -0.000005642334191756584443 -0.000004718396041284902857 -0.000004623947928431143268 -0.000004038771472103582858
586.000000 -0.000006024269007229225733 -0.000006176590653345493041 -0.000005758597237818963385 -0.000004828308573051113859 -0.000004709541022903251707 -0.000004113103712886813396
588.000000 -0.000005267207086176718838 -0.000005304657893942733954 -0.000004764311770046048508 -0.000003796808925626756829 -0.000004117185175626054178 -0.000003598359590062083158
590.000000 -0.000004634519498686032792 -0.000004570819629940693067 -0.000003922308852889237257 -0.000002916417317129412837 -0.000003610089120774154960 -0.000003158323678385418654
592.000000 -0.000005098332925489820376 -0.000005097417586191312289 -0.000004504315786946781767 -0.000003501121157705540555 -0.000003973080846889180774 -0.000003473030299196144816
594.000000 -0.000004526574661538488789 -0.000004426840380243386509 -0.000003734759523317191005 -0.000002703681374281151446 -0.000003524232465965753927 -0.000003084184090727736126
596.000000 -0.000003977817520659501842 -0.000003796441442805104356 -0.000003020020089060750704 -0.000001965461783419429574 -0.000003104481606189976433 -0.000002718077475616180890
598.000000 -0.000004201726356363355364 -0.000004031132532872226346 -0.000003265685811858221207 -0.000002207316873296926692 -0.000003281321182309702989 -0.000002874298268550966364
600.000000 -0.000002447680482127262478 -0.000002016462255730089110 -0.000000984266441649746234 0.000000146405013240535427 -0.000001900062667866623359 -0.000001674513327888780636
602.000000 -0.000001303777085932907589 -0.000000689814456978303756 0.000000527160110267118450 0.000001708314996174223447 -0.000001000186595354477301 -0.000000894426411238216105
604.000000 -0.000003222546400682750303 -0.000002885990956030334576 -0.000001937375511201220799 -0.000000809400610061576672 -0.000002515083962408910150 -0.000002209355733221813165
606.000000 -0.000004657749458092545067 -0.000004527444363123649174 -0.000003776034409495974766 -0.000002684365120432987759 -0.000003649207781436080403 -0.000003193566759731869525
608.000000 -0.000006308788061038893478 -0.000006423744690422310425 -0.000005904998866041575043 -0.000004853694117899096198 -0.000004952354682086271943 -0.000004323595472350592948
610.000000 -0.000007629050687044673248 -0.000007951541307478733744 -0.000007625822009910742965 -0.000006608569169346538965 -0.000006000629153107005637 -0.000005230249776807834440
612.000000 -0.000008431069105549175187 -0.000008826151955897873323 -0.000008569793760722983184 -0.000007558932006868992291 -0.000006630462532274332281 -0.000005785055262534737426
614.000000 -0.000012844160147045058924 -0.000013850233284134640975 -0.000014196318543260051778 -0.000013311561698389479650 -0.000010101938890388641632 -0.000008805562450903386867
616.000000 -0.000014886241626355126925 -0.000016189317871747627994 -0.000016820193647242831481 -0.000015986497779672427110 -0.000011705489619769560481 -0.000010196755937588710000
618.000000 -0.000015067684626364946359 -0.000016418381077000864898 -0.000017082150537047789750 -0.000016240948932726461041 -0.000011853770776352585712 -0.000010319426884421121427
620.000000 -0.000010979391130243660969 -0.000011733059973390988623 -0.000011793448427966611174 -0.000010795491111589500060 -0.000008617735801681262930 -0.000007507081935293945729
622.000000 -0.000005555180440473791233 -0.000005534632572185866466 -0.000004808500433251110521 -0.000003614136771190685250 -0.000004358900589043872298 -0.000003803407697848627221
624.000000 -0.000007110805889809086124 -0.000007317725597127463044 -0.000006797944252534444513 -0.000005625906916370135497 -0.000005575575290686093692 -0.000004860390327471948378
626.000000 -0.000005166461184479855403 -0.000005073960546852149730 -0.000004255278225189704719 -0.000003009554332674405400 -0.000004048315251739935168 -0.000003535940365156426330
628.000000 -0.000004891658056476080372 -0.000004778244834487114304 -0.000003925447788559700589 -0.000002662249697666717281 -0.000003842344046872034336 -0.000003351803706685099234
630.000000 0.000002342184581770931346 0.000003497319534686675935 0.000005388972371910303164 0.000006890109655223416249 0.000001829071081465403322 0.000001579845907492415276
632.000000 0.000004463941351382475522 0.000005905952184727974899 0.000008099639619322472392 0.000009687725408652760289 0.000003493888930555033999 0.000003030650043160418928
634.000000 -0.000001434304110408623152 -0.000000864330966194315944 0.000000476014522350065089 0.000001884212174097727069 -0.000001147193815152052273 -0.000000997492197635110541
636.000000 -0.000000784257683469995682 -0.000000124065893834206145 0.000001305106306753989354 0.000002729974070011597443 -0.000000665639149882381174 -0.000000575902347780719908
638.000000 -0.000001957033963237689857 -0.000001449734904844589734 -0.000000187539105285915184 0.000001181594287492159568 -0.000001621863156359632884 -0.000001406505298423387251
640.000000 -0.000000332894962971757237 0.000000432962605418132527 0.000001950107663667369771 0.000003384536793812330336 -0.000000340931375744713043 -0.000000296467936218566301
642.000000 -0.000000369050589744056986 0.000000419653558638651373 0.000001959962639363604960 0.000003407460637536176754 -0.000000357108044316398515 -0.000000313238284560039431
644.000000 0.000001702005651699965613 0.000002824150584399636386 0.000004699825878797965541 0.000006239726090779093428 0.000001296338430722783850 0.000001116959758510486627
646.000000 0.000001583110062486995034 0.000002683263389023476225 0.000004546236453501782928 0.000006095029398448355084 0.000001200292218134361351 0.000001035978824497068750
648.000000 0.000005147113632648756646 0.000006781796838938483478 0.000009182115944110702931 0.000010866858099478542095 0.000004015318873066224927 0.000003478464855741274018
650.000000 0.000003447480098475154185 0.000004845154994345008175 0.000007010913220339279224 0.000008642004610280696562 0.000002661401002625469964 0.000002301509939576464429
652.000000 0.000003191625637782086062 0.000004566811403384204844 0.000006701918852644947336 0.000008317787817425147402 0.000002443845095657411497 0.000002111671031125036135
654.000000 0.000000333576064762985060 0.000001274532265849835226 0.000002987371565311623482 0.000004513999759511243650 0.000000185788722504201068 0.000000153605910149460337
656.000000 -0.000001434391376596239234 -0.000000708789048763306781 0.000000783058573130212506 0.000002259916608312028998 -0.000001198304892966060758 -0.000001056265542336467000
658.000000 0.000002161456037214053330 0.000003393777936709475667 0.000005394356094549765619 0.000006990089514150319626 0.000001623763897290410782 0.000001398587213452671275
660.000000 0.000004329358972167883029 0.000005872242390897617020 0.000008190042217619324740 0.000009869291646079710964 0.000003343452109308482695 0.000002893795123140233427
662.000000 0.000006992414877716612565 0.000008912046217752151508 0.000011600766638574218310 0.000013358587657081362493 0.000005423752011219008992 0.000004702981762258702737
664.000000 0.000003558758589308384945 0.000004994191182473021276 0.000007209691726853021929 0.000008867658396004062465 0.000002734607944006930483 0.000002362544929416851665
666.000000 0.000001344849021298454677 0.000002437664142351667878 0.000004320289395101286213 0.000005906190666468584671 0.000000995249927150365045 0.000000854266003272722314
668.000000 0.000003864733305269107909 0.000005280864076178006769 0.000007486252185288677606 0.000009142413649329114421 0.000002972026953898703575 0.000002580724962622360254
670.000000 0.000004390120165115763883 0.000005866413945120730507 0.000008122765833511418602 0.000009774062791055024491 0.000003362050322734739211 0.000002923991516134687145
672.000000 0.000003002080382808665963 0.000004234752364208260081 0.000006260929313032346055 0.000007863492192165624399 0.000002268195560873377507 0.000001979864855562741139
674.000000 0.000004580764473471193018 0.000006006663891121709325 0.000008237673064235462073 0.000009890929831063977176 0.000003506269623540608428 0.000003060539988551243924
676.000000 0.000002993656848869330224 0.000004176136597233250225 0.000006164834759350743875 0.000007761172007206527075 0.000002263586138205076128 0.000001981719721663793761
678.000000 -0.000000241217570023719211 0.000000471995934933213797 0.000001984282277338117109 0.000003456501360157889613 -0.000000297045394696611381 -0.000000245202015850030440
680.000000 0.000007018727786164005086 0.000008769024892683800705 0.000011308559547017992179 0.000013008685834152605403 0.000005416722045907988384 0.000004720230317020785236
682.000000 0.000010661101563649639688 0.000012924178913318971348 0.000015969629349966366348 0.000017776783040437108056 0.000008285700566938303998 0.000007214271292099661210
684.000000 0.000009189347619236748561 0.000011204642411717459830 0.000014005785054513149508 0.000015751122237241334023 0.000007116117622544981965 0.000006202319182757450973
686.000000 0.000005474969155042318734 0.000006920915875213611732 0.000009154891967639628867 0.000010761286011063441037 0.000004186801148424874074 0.000003660508867476593271
688.000000 0.000004447127840327693686 0.000005693086438365054156 0.000007727984634979008635 0.000009276305117175397073 0.000003362780018552299739 0.000002952345980728332310
690.000000 0.000008354148910457935608 0.000010140886616623873134 0.000012708442674643073933 0.000014367611773172774944 0.000006437411632861280287 0.000005626982751093129875
692.000000 0.000009559449558257910413 0.000011466107878057661126 0.000014159560141318812261 0.000015838525208873878832 0.000007373149551300700551 0.000006448776180611974084
694.000000 0.000010555198277886618783 0.000012602687499000673522 0.000015418091763755198170 0.000017106251076482845201 0.000008161660948773783589 0.000007132327164240336445
696.000000 0.000009552238389974201414 0.000011429886912237826940 0.000014069385921462535460 0.000015704839011759432084 0.000007369790282554998271 0.000006447058470436859767
698.000000 0.000007814384058386028987 0.000009404724468106641618 0.000011762346090197467233 0.000013326033652505685944 0.000006010956794555537038 0.000005270520450539461778
700.000000 0.000012794488608989478725 0.000015134840805967045684 0.000018224685915434016314 0.000019950744314871378231 0.000009962638749887930213 0.000008695635151083973518
702.000000 0.000012867654965432496361 0.000015211391830919548251 0.000018300096032594187186 0.000020021981714758605521 0.000010030032193938276074 0.000008752293091560600782
704.000000 0.000011702219448925794927 0.000013876041494269968633 0.000016782158619714615381 0.000018445862518767871423 0.000009117942297778768861 0.000007958004558304940007
706.000000 0.000007805607862340729379 0.000009417931366265663975 0.000011749577765532530292 0.000013262069450082143959 0.000006052898975653830116 0.000005293517588863851708
708.000000 0.000009502785609420629455 0.000011352964628253394555 0.000013906698105475406971 0.000015454894079778757276 0.000007393385869594529569 0.000006457649444017645403
710.000000 0.000006836438184147174424 0.000008289496584200954646 0.000010439836930147475535 0.000011880767968098154692 0.000005293845362971823820 0.000004633654508919161123
712.000000 0.000011330640999767220160 0.000013412962387006554537 0.000016178331795391610436 0.000017743372704755979769 0.000008834313374711471971 0.000007713108054226265893
714.000000 0.000011106580025534978765 0.000013160079109408583209 0.000015875914665243491536 0.000017406723757784301078 0.000008660029438128096313 0.000007560801815506695969
716.000000 0.000012425201438626601501 0.000014700018546716954110 0.000017617977934319641780 0.000019183491048473139834 0.000009716579155822000738 0.000008471225697216528549
718.000000 0.000003366304319372472956 0.000004303549634843282089 0.000005895284160601407205 0.000007159789462402488601 0.000002610466151326636620 0.000002297563936089251304
720.000000 0.000004640781673156194155 0.000005753142727073063908 0.000007508976472337607649 0.000008798493819323793846 0.000003608694942654259190 0.000003163336302120753898
722.000000 0.000008510280063505987690 0.000010167532260529914170 0.000012456175020357865358 0.000013849001577671626813 0.000006637828889583511125 0.000005795793961230679327
724.000000 0.000008733900557305726952 0.000010419241711221250430 0.000012726055529298513838 0.000014110935637778978366 0.000006819064563179094905 0.000005951316132493792846
726.000000 0.000009592289394726390793 0.000011372519587807384148 0.000013768562972167785921 0.000015159856994951173068 0.000007480403024467605755 0.000006529814403732788936
728.000000 0.000013561608516054359896 0.000015930205654451359224 0.000018897701631049750498 0.000020404945001520761100 0.000010614878043342625545 0.000009248416938126749663
730.000000 0.000011623481033690540105 0.000013725600524557491809 0.000016420224642461735614 0.000017863750396682290142 0.000009121905544128386964 0.000007946515761549679448
732.000000 0.000008719080447806430416 0.000010379146698323263415 0.000012629894842103570648 0.000013964154480511731680 0.000006839538486233495186 0.000005966436893544726102
734.000000 0.000002989558717621116762 0.000003815602980998951434 0.000005231776171802072115 0.000006371831010911441510 0.000002349164250241835541 0.000002062625915410246478
736.000000 0.000002555426247565633936 0.000003324005997157881338 0.000004670569683463518499 0.000005781340156016036454 0.000002010414645358812820 0.000001765810889106464315
738.000000 0.000005411549675664368254 0.000006607647029569336882 0.000008367587868953555574 0.000009559332158579520543 0.000004262450341198527180 0.000003718245805429385845
740.000000 0.000005185747670714448239 0.000006328266559298826837 0.000008028022311817642793 0.000009193107152109276377 0.000004076738257806959440 0.000003560422058438273491
742.000000 0.000003601544156700398239 0.000004478898501356827002 0.000005911240161262167430 0.000007002006148872533622 0.000002805768494092855299 0.000002460902737085092608
744.000000 0.000005666686468635146736 0.000006881261587327684196 0.000008618005679053323547 0.000009749843690212878125 0.000004430996895741812687 0.000003866331302350764798
746.000000 0.000004500736621001584506 0.000005571151338646937928 0.000007152152141998050274 0.000008244868046871332585 0.000003534425737780036948 0.000003080266577751664407
748.000000 -0.000000415234431735226689 -0.000000082641996580652195 0.000000761837452592720483 0.000001675359841474597213 -0.000000336378703431171592 -0.000000279568205131453751
750.000000 -0.000001145688534486959043 -0.000000964395502900319600 -0.000000258978307156727360 0.000000624174456176220415 -0.000000917951552883985556 -0.000000779635995521646553
752.000000 -0.000003273966195072950920 -0.000003372491617487891700 -0.000002969473944096095081 -0.000002178730877018468793 -0.000002594421524428893263 -0.000002242340437090004607
754.000000 -0.000005494478480026130485 -0.000005919954560645349729 -0.000005843804088262164602 -0.000005126564456668761304 -0.000004323850570044306029 -0.000003745630184569693597
756.000000 -0.000002485371054599452190 -0.000002458468657174595053 -0.000001948910781460351528 -0.000001143550932957090941 -0.000001945847668155321895 -0.000001685211212238801447
758.000000 0.000002488917397722628698 0.000003228975463446653555 0.000004442125653701881134 0.000005399730039419781443 0.000001974145284598237584 0.000001721352208424669505
760.000000 0.000003211070351026383987 0.000004015891799637833131 0.000005290367903319413928 0.000006247390110740679929 0.000002520093972897300930 0.000002202022532615412893
762.000000 0.000002660151506572058542 0.000003373820001580926345 0.000004551529637518258168 0.000005477134364967204236 0.000002093660394199870204 0.000001833044275791319412
764.000000 0.000002078149501880878637 0.000002717860525301943222 0.000003811897559477044317 0.000004703438589011290789 0.000001628511637432372333 0.000001425832103558344487
766.000000 -0.000001150853549862332713 -0.000001033036647397095773 -0.000000454377885972185639 0.000000311368504627292048 -0.000000927334867486894714 -0.000000785164016396008689
768.000000 -0.000000760091366057362611 -0.000000580711300746498521 0.000000052741626051283355 0.000000834368531261286891 -0.000000595490092870024290 -0.000000500710611908753043
770.000000 0.000002844022492961005107 0.000003550592863904965330 0.000004696409990519290140 0.000005578321270952935670 0.000002234158737205207139 0.000001956867644198870421
772.000000 0.000001472943891400035224 0.000001975466006238425068 0.000002919221445049335551 0.000003752457862518980792 0.000001162355493102337352 0.000001025366425344449579
774.000000 0.000001802914330768031692 0.000002314627145831753678 0.000003258479895319609495 0.000004078793347260778921 0.000001417633517872652645 0.000001253539268397075789
776.000000 0.000005290040963345976331 0.000006306081843566115271 0.000007744166314182680333 0.000008669804840517329785 0.000004172308069136843467 0.000003645849648572977548
778.000000 0.000004319852121021821465 0.000005126843204932856235 0.000006388532547446717891 0.000007286569561069511601 0.000003407297374315864913 0.000002992529522918007409
780.000000 -0.000000716134409809016309 -0.000000624616394359773631 -0.000000083377801141562459 0.000000652482268018963213 -0.000000548256497916501784 -0.000000451502112083196765
782.000000 -0.000015297257285752327051 -0.000017301160136806087236 -0.000018835480831835182047 -0.000018575441915490621561 -0.000012040183639471491558 -0.000010442772947883984343
784.000000 -0.000006028899836694907346 -0.000006533333998301358721 -0.000006647250879491643421 -0.000006106103588520360890 -0.000004720858777929569372 -0.000004112448574318176939
786.000000 -0.000007726394831403767726 -0.000008360958470095117130 -0.000008654150500821292132 -0.000008182798687004301901 -0.000006027089332949714640 -0.000005268503026171158471
788.000000 -0.000007939900566374490771 -0.000008574035355550721358 -0.000008876190276893993847 -0.000008417010470415069986 -0.000006191507264399368431 -0.000005419876736292285529
790.000000 -0.000012984480970562803574 -0.000014313124510183550760 -0.000015310090835998652758 -0.000015001234380674037725 -0.000010134295103011097217 -0.000008855129959595294835
792.000000 -0.000004841032202718841743 -0.000004962812791477807548 -0.000004792708168902595620 -0.000004251978938581460749 -0.000003754878423876675726 -0.000003315663785027202567
794.000000 -0.000003101868602691838438 -0.000003034620349348704982 -0.000002662269195439002003 -0.000002077001443198986274 -0.000002389880640973396554 -0.000002116924773907074860
796.000000 -0.000002552637916033810832 -0.000002556284775939950689 -0.000002252682752474178946 -0.000001712340702966524465 -0.000002010805597429165502 -0.000001754160667555829601
798.000000 -0.000004652306524474063870 -0.000004922716035508297842 -0.000004898967105949427816 -0.000004432785911971449773 -0.000003623367519236567328 -0.000003160944523921585323
