0.000000 -0.000000000000000000000000 -0.000000000000000000000000 -0.000000000000000000000000 -0.000000000000000000000000 -0.000000000000000000000000 -0.000000000000000000000000
2.000000 0.000413285474466900933175 -0.000546318422734536567574 -0.000297668055058396925291 -0.003227554642457439778441 0.000309930621391164905047 0.000346229129457753526111
4.000000 0.000610942608384258505072 -0.000208000753962269178217 0.001183046476343347676308 -0.002039530005893125299415 0.000561330511633408133117 0.000606856642225983458454
6.000000 0.000163975533127411101774 -0.000477758600999655751694 0.002147356822682412215431 -0.000573849570882876535566 0.000706577572212177388612 0.000745125727995945663466
8.000000 -0.000480167046541047693765 -0.000729427179471348096154 0.003459374034186151174869 0.001271985269189447424754 0.000955787376062384617589 0.000979617789680032637067
10.000000 -0.001855204958513836498851 -0.001616936975791161655580 0.004861181120053976317807 0.003506666861093420389101 0.001433822972933792736991 0.001428342503440494350511
12.000000 -0.002958692923819159371207 -0.001954711701058495145616 0.007024563091958755875477 0.006209303294775571357977 0.002127898262275267939059 0.002075399208396503953483
14.000000 -0.004429495368164984049619 -0.002821136556884844357601 0.009686191877791541088305 0.010445216632840719286901 0.003268727147067919825557 0.003136343585135146268955
16.000000 -0.005898634534838334900209 -0.004486449406826817885852 0.011573350119350197737211 0.015545263692097334440323 0.004897510030073298770148 0.004643376331858958122600
18.000000 -0.006155851861124969452710 -0.004703625549484602257067 0.015142049337964902031017 0.022851192927431762669244 0.007050680589698543609956 0.006646111001405267081077
20.000000 -0.007122106675251141036376 -0.006154794596359002001318 0.018229286528629751878983 0.032389028804727160171240 0.009607495946220378710279 0.009001133841504773552833
22.000000 -0.010099026562300628465096 -0.009466357278247341730526 0.020892414832818034797768 0.043339502642684123168149 0.012676611566827039254135 0.011811021169398481026058
24.000000 -0.013722371274746540323330 -0.014091723913802433471032 0.022698404917282904297293 0.056236213426061616715845 0.016177609614506510693488 0.015016157024724622118250
26.000000 -0.016832121674256003696080 -0.017445132678495064298962 0.024441544647377997506732 0.068370558661007593825865 0.019953417386371238156917 0.018489694002042682957621
28.000000 -0.020764801029117103958743 -0.021450706076931544408204 0.026356331208037011432088 0.082980410401939014297668 0.023591409938441103288920 0.021790721008836336919368
30.000000 -0.020848171591674076463807 -0.016562190384168572893087 0.034469531666755232057753 0.101798986480792261200001 0.027233717326899772176452 0.025109624588198049821575
32.000000 -0.022192327900092859160885 -0.015856660774926662621498 0.038571416980054534784372 0.119514951731381963151435 0.031008696076007719738543 0.028558844583764449870378
34.000000 -0.022866902048378674044971 -0.014659060272471812272355 0.042724152848762228518176 0.137070131480417939373595 0.034520136955886633611801 0.031760275905582766031721
36.000000 -0.024403015352519184105740 -0.013619664009699938844733 0.047702023449733274573781 0.157289056127446619237631 0.038374607026755838679044 0.035204670258871910426546
38.000000 -0.027005754305425073991120 -0.014552467192688538222267 0.052571081057083426935073 0.177388972497381586235221 0.041840171910890552875451 0.038319583004613418097950
40.000000 -0.030773524539359976837094 -0.015468410252828435416661 0.061426432290586210904770 0.201004400415000977764279 0.045853590544748266955022 0.041936192245357738206391
42.000000 -0.034971270086166350576917 -0.018201992452597459681840 0.069563861746737509772487 0.222278408890582895862664 0.049886413927635202270050 0.045609912510205907754113
44.000000 -0.038871505582511282905767 -0.021364599153486877464170 0.075815984521229548565024 0.240169741045417023395103 0.053659777370564036569345 0.049090818355665297167967
46.000000 -0.043865423819442840580596 -0.027157745217628596196002 0.078989491398830796731190 0.254505694412011429506038 0.057567282140478175100906 0.052669274814417452179605
48.000000 -0.049425300937260913114457 -0.034073821749288732418925 0.082319137960266436371271 0.269433571016314488133503 0.061539752685130108544875 0.056340989702748298095791
50.000000 -0.055273188347870275127782 -0.042277983910217808993792 0.083139335972073652447634 0.280438324523694493262127 0.065130164841338045178532 0.059685326572689198498800
52.000000 -0.061817349239358151957724 -0.054527400507989570721534 0.079025732162736672670178 0.287920166412784728215968 0.068161039746052268228915 0.062512728701742376058448
54.000000 -0.069186881265603961121968 -0.069058040862735495246660 0.073608744870597653253697 0.293270573124031153078306 0.071129459771819114610736 0.065228908771808855049379
56.000000 -0.076428459107000717986935 -0.080862794094335374572857 0.072924653879169368253521 0.302198948082609719634206 0.073327491239816161572307 0.067118851392908365771639
58.000000 -0.082601967678989335341910 -0.088608568816859648031858 0.064854437935244688140379 0.286128712647282734682364 0.074844358651369541357568 0.068349883953842630046616
60.000000 -0.086970907342261413730533 -0.093508534904828313760738 0.047707742831422934870478 0.249762245387318670974963 0.075527930392113903912410 0.068860826579391992696699
62.000000 -0.090790376672382142042572 -0.097466397873738661039589 0.027322829703173727444732 0.211287105511694439652359 0.075152216833045779043054 0.068339768524416533157506
64.000000 -0.092622818654458982656763 -0.101280721158076597587794 0.006261772274733620052833 0.173953966699284340302611 0.073201339741664275817534 0.066467769290911110635633
66.000000 -0.092352096237874312101290 -0.099135634071325570704225 -0.002426158206342726199323 0.144445773815033262632568 0.070758218554436688729758 0.064280814736298902412059
68.000000 -0.090461615867666086976406 -0.094341079202973993078629 -0.006858253159395842797619 0.117209218500895329118094 0.067786224494795210837594 0.061684090318076527370561
70.000000 -0.087883538565911870077407 -0.088143218441394791118348 -0.009174587747607706317288 0.091762458507505917371105 0.063808143849408430203773 0.058242215554131206156629
72.000000 -0.084484288047922698194903 -0.080777226563684675908483 -0.010905563348921600008712 0.062914984551691074954327 0.059718879441546982023148 0.054716056823543440801316
74.000000 -0.079412393277594833795874 -0.069735173151378865297190 -0.009509427986430065218859 0.039851181838156078673929 0.056193854421202317495077 0.051633201848557304380893
76.000000 -0.067388423268271852029088 -0.052195668044346520131338 -0.003265699471986587779787 0.019073902090399545705690 0.051579633577492546570031 0.047519748208013336265854
78.000000 -0.056586788749074697080221 -0.039580321807534610267787 -0.001930539959862713397104 -0.002588838119411094717409 0.046790858494408726908631 0.043187808171339527041344
80.000000 -0.049101369408030906549278 -0.031185271837546164885868 -0.002302565974270079449809 -0.016318348559025593058625 0.038519315709986685913879 0.035598690287155398959129
82.000000 -0.040399286273024921645192 -0.021390471458470533550056 0.000608504971364416148705 -0.020307223986044321828448 0.026700440503212328341442 0.024823384091889281327648
84.000000 -0.031474269872442721396322 -0.011215794445476469365364 0.005829861458920213880541 -0.017930491618386022734111 0.020022748383128907007089 0.018857283812117035803890
86.000000 -0.023874193782275444225549 -0.004646928407806005800751 0.008241705730782811212265 -0.013238214211725838134748 0.014639995159948886865875 0.014031906121988154192981
88.000000 -0.016511764997329300697082 0.000773268996026984438245 0.010915038060525600327466 -0.008446545647455852567909 0.010782654120223894231301 0.010504030160095541995835
90.000000 -0.009604091891497223629215 0.005023311320613344822805 0.011897806888389077933921 -0.005830429271160681402308 0.007716121357697849035551 0.007677672703562071418459
92.000000 -0.003070797850977799621497 0.007692138105777708047273 0.011833195842096758121365 -0.004614896924628567563553 0.004150759383855812112429 0.004407679963836952374834
94.000000 -0.001055869515384642593619 0.006148822642302318938756 0.008944051094346944924540 -0.005792528257530512453277 0.000606187425083067055187 0.001170199197498082580374
96.000000 -0.000682086728978244997805 0.004050414863188959990747 0.005814877746203516925561 -0.007063140245115599562264 -0.001866445943125689520964 -0.001126569773847449452628
98.000000 -0.000095946858942615119415 0.003361074107185578474510 0.004415520484659977117070 -0.006514854720113956790262 -0.002818491411129535155478 -0.002050615118645011340087
100.000000 0.000136333994274410563296 0.002455473186674718769074 0.002711356041445551253583 -0.006108207483797358124111 -0.002261170455902145309118 -0.001650135810603192264984
102.000000 -0.000053946016158199678085 0.001095537712146021783535 0.000470172633686623015360 -0.006119982519447876578855 -0.001212713880066064540270 -0.000807842811849131020759
104.000000 -0.000004832182458637147267 -0.000131569314344238817065 -0.002258787013939661005024 -0.007020260689255063135672 -0.001294451403703373963683 -0.000925305430514994169643
106.000000 0.000187627898229348157640 -0.000068094299132210228719 -0.002737575394983017551542 -0.007207891747552796699039 -0.001238265677615838118719 -0.000900654219795648234605
108.000000 0.000476901493890312497444 0.000326312293994036515220 -0.002440308573072907244450 -0.007092704170994493760583 -0.001230903521057477752187 -0.000925907568473707896090
110.000000 0.000774227804629815845663 0.000686528048647421971183 -0.002193720024294128472658 -0.006977686456493039854343 -0.001353423432481900418045 -0.001072457988252464421847
112.000000 0.001010212198861645382236 0.000953929703987947859301 -0.002013060621729977940630 -0.006843824715475159241318 -0.001291813382935947437241 -0.001050415450915368918358
114.000000 0.001212952693093331639485 0.001177021967247350890326 -0.001861011505926104918351 -0.006698306647984822274899 -0.001250997373910381609691 -0.001048270257454813128573
116.000000 0.001469979060683862612940 0.001433604595896775064576 -0.001689327317020378497678 -0.006546525899900861381053 -0.001390699875660559052190 -0.001212370413906630264855
118.000000 0.001713500935526794232561 0.001659138849722622231775 -0.001572769114076137328406 -0.006470423678485647325798 -0.001620224446199454958195 -0.001446819259262682733080
120.000000 0.001922937628231998971606 0.001821041723617104193464 -0.001522566780536675160734 -0.006459524853992008527892 -0.001858704586254375209012 -0.001683390624409828850022
122.000000 0.002069176095814237448245 0.001921325865491684383238 -0.001519345316342049848068 -0.006480218583494396292211 -0.002020208831820993929107 -0.001842477713547332465391
124.000000 0.002151451415333956434378 0.001961302980898981234564 -0.001561609264563318562324 -0.006532938725088670815777 -0.002084869212537050504191 -0.001903915910193575188394
126.000000 0.002218473036684646092220 0.001991696320925572839811 -0.001602883651523935104946 -0.006583252494619024064448 -0.002135168547982884551528 -0.001951493216572984697177
128.000000 0.002275954696563642441071 0.002018119171330494572569 -0.001639191490118137826959 -0.006629438140642829498106 -0.002178391797877516234544 -0.001992740360686107072702
130.000000 0.002325551037432901750612 0.002041602418851435306324 -0.001671226821658442071236 -0.006673458264936890302343 -0.002215934881237727020753 -0.002028803154367502751404
132.000000 0.002368752217425530281342 0.002062950146818904283152 -0.001699702680443297394056 -0.006716746094455568368009 -0.002249117991118156859726 -0.002060813696554696615448
134.000000 0.002406810942077542390949 0.002082741213015220412691 -0.001725335822611366110371 -0.006760365786269162576005 -0.002278984800179149460692 -0.002089677671940872154960
136.000000 0.002440767142723466662235 0.002101394593559803222749 -0.001748792731184162143471 -0.006805075781947675719885 -0.002306346431090974466449 -0.002116107922045831497143
138.000000 0.002471483089151295300251 0.002119220483112456074326 -0.001770671008657533811517 -0.006851428513208567341874 -0.002331839773959865861480 -0.002140674271190248171420
140.000000 0.002499679542678574263592 0.002136463500400436268944 -0.001791470538525322944365 -0.006899798229709776763163 -0.002355975934435550808027 -0.002163843459514038294889
142.000000 0.002525967307305421183372 0.002153333847778601557038 -0.001811597935354540209185 -0.006950443523302266696229 -0.002379168903804404662516 -0.002186001793775543475262
144.000000 0.002550843945197492877719 0.002169991960341381958405 -0.001831390850630140558486 -0.007003537861472674229402 -0.002401755268252028438503 -0.002207469951320440923470
146.000000 0.002574734091153970619997 0.002186591159335105321454 -0.001851102733253990814677 -0.007059190560205435768792 -0.002424014763188396537341 -0.002228519058418033851193
148.000000 0.002597989277840641753753 0.002203258983563325008881 -0.001870955968095430093159 -0.007117510768565272691322 -0.002446178938424021891140 -0.002249377157957124697546
150.000000 0.002620903890364440110006 0.002220107931743814291131 -0.001891112778984769399182 -0.007178572120078880250404 -0.002468443609650101955300 -0.002270238993843862185251
152.000000 0.002643720886466709510398 0.002237234264496321817228 -0.001911719795261455738522 -0.007242448739426245347961 -0.002490972855898532754837 -0.002291269378959257495276
154.000000 0.002666647914016512938007 0.002254727443860898763311 -0.001932888808059414964199 -0.007309223360753905156251 -0.002513906737984726493668 -0.002312609499052101919014
156.000000 0.002689861089165997490302 0.002272669920166860407090 -0.001954712588491589169565 -0.007378974821000558285966 -0.002537370012495533851127 -0.002334384956081558652741
158.000000 0.002713506784195632553364 0.002291128504108116709787 -0.001977283445368177485640 -0.007451811081883048110130 -0.002561467733666953575794 -0.002356701759273734271549
160.000000 0.002737714928986936021443 0.002310171051176441309183 -0.002000676691856424858212 -0.007527837456997709536521 -0.002586299521874653537662 -0.002379659355463513772944
162.000000 0.002762598434792939289251 0.002329860879517569455244 -0.002024960036855423788776 -0.007607175723808458356334 -0.002611951444586038933310 -0.002403343517690885444704
164.000000 0.002788257258177632633145 0.002350253088869755802720 -0.002050203345869896966874 -0.007689960768158234961922 -0.002638506290267885346507 -0.002427835689144261770850
166.000000 0.002814785888079973479037 0.002371407793610006992796 -0.002076471935576247422606 -0.007776347782472181092983 -0.002666044542458424326109 -0.002453214257656369332722
168.000000 0.002842267251311220849219 0.002393374110657248317324 -0.002103837800480596199187 -0.007866504329576116255618 -0.002694637920202552338472 -0.002479548925594184452526
170.000000 0.002870782508712345360014 0.002416205404403461501350 -0.002132370194434847314457 -0.007960610162495048575115 -0.002724364744035238320580 -0.002506914457355402092026
172.000000 0.002900413078957685998616 0.002439961704199638745094 -0.002162133876279166526391 -0.008058859963716647964449 -0.002755300958299911236182 -0.002535382835766083163553
174.000000 0.002931234176289136510174 0.002464691779129591329978 -0.002193205990793073174167 -0.008161466403677269595973 -0.002787521074518668415254 -0.002565024502925488530947
176.000000 0.002963321647150678195271 0.002490449908879995184752 -0.002225668897857076538455 -0.008268659151026239509386 -0.002821102628903280826189 -0.002595912207350812000300
178.000000 0.002996757859244341543059 0.002517298326443580779033 -0.002259600913534329843374 -0.008380683091079093802178 -0.002856128761235475575081 -0.002628123433802828298744
180.000000 0.003031623052833085345953 0.002545296443884498879123 -0.002295087966585675123138 -0.008497801281405802445446 -0.002892684817694561767720 -0.002661737572289701262568
182.000000 0.003068000882063826040280 0.002574505357338366298009 -0.002332229788399787628189 -0.008620300447922210618223 -0.002930858363796172601223 -0.002696835786061515215228
184.000000 0.003105979362705334981959 0.002604990957779650465054 -0.002371120835980919903940 -0.008748486157264513674026 -0.002970745985722659642664 -0.002733507319764805817280
186.000000 0.003145650115746178102083 0.002636824134873868002299 -0.002411871583502232102569 -0.008882686612029703707161 -0.003012446968963262711877 -0.002771843999108536318182
188.000000 0.003187111629335699289345 0.002670077704552976591290 -0.002454594366992932184118 -0.009023245811281320818975 -0.003056066920939159211462 -0.002811943175981408173103
190.000000 0.003230466017699890578230 0.002704828076961305217268 -0.002499412826274018725042 -0.009170544490442876506275 -0.003101719243772422997946 -0.002853909255094356188509
192.000000 0.003275820378754243280411 0.002741156629789441318695 -0.002546459554234701151004 -0.009324981428084683568458 -0.003149524832545876756873 -0.002897853609963828291907
194.000000 0.003323294644049273622449 0.002779153420517732099582 -0.002595876181556093943020 -0.009486996528183386928612 -0.003199613602887339033204 -0.002943895707513919171583
196.000000 0.003373011526378675000587 0.002818910581542032403601 -0.002647816566273687981931 -0.009657052618729022180899 -0.003252123105810668379778 -0.002992162134775719264240
198.000000 0.003425102930009191800481 0.002860527665697797095046 -0.002702444724824359413573 -0.009835652429489168471766 -0.003307201881473517506016 -0.003042789437202856120401
200.000000 0.003479710513180193660193 0.002904108826082937595131 -0.002759939696963773468619 -0.010023334602673194398959 -0.003365009459084870348244 -0.003095924277770194330689
202.000000 0.003536984758503548126329 0.002949767334902061652335 -0.002820489925717918362064 -0.010220675861058171191020 -0.003425715308442718164822 -0.003151722421973893791675
204.000000 0.003597089892393602085507 0.002997624671638912836891 -0.002884303632631617618498 -0.010428298330839854551888 -0.003489504825432987195760 -0.003210354244311884423790
206.000000 0.003660198240200350418977 0.003047810842557644936401 -0.002951598142435214386370 -0.010646875380442994904473 -0.003556573634910235436751 -0.003271999505808395429518
208.000000 0.003726495549111715106794 0.003100458953064814948686 -0.003022622424717728850663 -0.010877130859999870407528 -0.003627133538890885740974 -0.003336852821245735005451
210.000000 0.003796182171493716304977 0.003155718412108107686492 -0.003097628971714417537436 -0.011119841057566902733922 -0.003701413334239879882742 -0.003405124438782404332204
212.000000 0.003869470599059848022611 0.003213744089311820675142 -0.003176900150543939156667 -0.011375846063390267215443 -0.003779658484248737439215 -0.003477039744881497106144
214.000000 0.003946591717995425428744 0.003274704694120956268572 -0.003260734764888888279760 -0.011646046777398262259129 -0.003862133557494012991995 -0.003552841849681893579560
216.000000 0.004027790827212147581338 0.003338776259849824713799 -0.003349464388687900355535 -0.011931419225807371464754 -0.003949122075694693791148 -0.003632791119321323453084
218.000000 0.004113332359374284596942 0.003406152293589921435657 -0.003443432434410492997551 -0.012233005550221404816869 -0.004040930622805929961494 -0.003717169173702731654191
220.000000 0.004203498201067207978854 0.003477032232321644687062 -0.003543022989991095883511 -0.012551941436867972839986 -0.004137887443119157501736 -0.003806277452564478351593
222.000000 0.004298592685724433350158 0.003551635236248203760651 -0.003648641486165375095313 -0.012889436886156391964819 -0.004240347826468743482053 -0.003900442125824381787991
224.000000 0.004398940829911585255474 0.003630192819341862553451 -0.003760725382788338271717 -0.013246793688447418627097 -0.004348691609756084180960 -0.004000011962343107477236
226.000000 0.004504889023713499682233 0.003712948568584856050279 -0.003879747216467193792616 -0.013625416005426778387477 -0.004463327374421580118202 -0.004105362076922722085193
228.000000 0.004616809334447230690757 0.003800165745236338665086 -0.004006208662560698831323 -0.014026806685941691638098 -0.004584692756111102135419 -0.004216894090749663537299
230.000000 0.004735098529262676304852 0.003892121745774861692885 -0.004140650114704363254914 -0.014452573295134999581402 -0.004713257675330278020920 -0.004335039293720832978551
232.000000 0.004860179597653301042381 0.003989110562674351261048 -0.004283654522618424685676 -0.014904441644407717335041 -0.004849523767472542663814 -0.004460257966262947716685
234.000000 0.004992505446174551678173 0.004091447184379625075235 -0.004435831774803529817253 -0.015384243556797674509773 -0.004994027678085884158765 -0.004593042378222818820921
236.000000 0.005132557702169591833108 0.004199463715792308739216 -0.004597843161889665630770 -0.015893936103586744218452 -0.005147341287856389488442 -0.004733917117333981752769
238.000000 0.005280852428264169728944 0.004313512408071778006513 -0.004770392579437899606420 -0.016435604516039960254492 -0.005310076262322038602448 -0.004883443178861271612157
240.000000 0.005437941691507958488772 0.004433970885740103409778 -0.004954234440100579311972 -0.017011466300014224661830 -0.005482883023333102838481 -0.005042216973048099099008
242.000000 0.005604420508627385583145 0.004561245801954071088513 -0.005150174470682445694580 -0.017623879559254328891482 -0.005666458523259108870374 -0.005210877607354905127757
244.000000 0.005780928251408837606484 0.004695769346145212130850 -0.005359092953102345506522 -0.018275364099154742247855 -0.005861548790591247261317 -0.005390109236867759480438
246.000000 0.005968160432198818532434 0.004838013181733454189104 -0.005581947784370855890346 -0.018968614719043961486244 -0.006068958451495168673895 -0.005580649919666501833360
248.000000 0.006166875689822780975957 0.004988489619070282481139 -0.005819798396002060295040 -0.019706538856733214759576 -0.006289560894655734507586 -0.005783301178389140505265
250.000000 0.006377909195521401335138 0.005147763400645605745554 -0.006073829641119497108059 -0.020492299459749691720178 -0.006524314447738095538998 -0.005998942807804200430533
252.000000 0.006602180380503466436415 0.005316453993308324979528 -0.006345382526291891249481 -0.021329375206050670693569 -0.006774279178318785323010 -0.006228548791939157898423
254.000000 0.006840708407297523864499 0.005495246341750828662776 -0.006635982779391101475663 -0.022221629364189570549071 -0.007040641540760104490071 -0.006473209870652454379913
256.000000 0.007094621770552829616296 0.005684893086154781983999 -0.006947372018464945987726 -0.023173400905845051994669 -0.007324739116400238655991 -0.006734156496766913885255
258.000000 0.007365165674666612413701 0.005886213266682344125158 -0.007281538430608248436970 -0.024189603195862028478524 -0.007628087737177476589101 -0.007012783760738219678010
260.000000 0.007653704687545951484973 0.006100085568230912726195 -0.007640728492812121248889 -0.025275818333103019369679 -0.007952404591069344233500 -0.007310672312439147300933
262.000000 0.007961717750986058161899 0.006327428595418792788008 -0.008027450856043271201767 -0.026438389207987082057949 -0.008299625549291381187977 -0.007629603763113020249709
264.000000 0.008290778416949539514347 0.006569167667053282290424 -0.008444456028992151919166 -0.027684480625067252324012 -0.008671907405117123407434 -0.007971561725634339345969
266.000000 0.008642531340696585698269 0.006826193715632802513915 -0.008894694320720363325816 -0.029022097103453346755852 -0.009071613094009922315109 -0.008338716914682823763694
268.000000 0.009018659540475378044722 0.007099320898657509627816 -0.009381246031280774180794 -0.030460032498594094563238 -0.009501271642230191272205 -0.008733388636862893933399
270.000000 0.009420849911595250911200 0.007389247784149990429248 -0.009907237212776845783346 -0.032007756376739832093747 -0.009963514945662570523877 -0.009157984694987601412275
272.000000 0.009850764791406892845194 0.007696534939854391896286 -0.010475755308652023867211 -0.033675214279398242578356 -0.010460995063229575063879 -0.009614923589016810198671
274.000000 0.010310028579541875154435 0.008021618464711393822753 -0.011089786434571948653405 -0.035472574263390989346423 -0.010996290677950623301817 -0.010106547563105755180302
276.000000 0.010800234087295716364774 0.008364875764524857398863 -0.011752182406249544327492 -0.037409927977596589554476 -0.011571821357440722349841 -0.010635044041653544943937
278.000000 0.011322986240442610428314 0.008726756539756613112457 -0.012465662636115417902238 -0.039496984499989604144865 -0.012189786493143903514658 -0.011202391470956968647088
280.000000 0.011879991179811791660037 0.009108011344268363007615 -0.013232829320525477459491 -0.041742799616726153355550 -0.012852153974255179844088 -0.011810352813641606870010
282.000000 0.012473183327679123952314 0.009509968518215880517452 -0.014056198962760863002686 -0.044155550005684780778825 -0.013560706559566315654308 -0.012460524238085565751355
284.000000 0.013104895966537195850510 0.009934841903552087127860 -0.014938267138795958965947 -0.046742450290907677779018 -0.014317163247420886668104 -0.013154453521772220894737
286.000000 0.013778051001821748841603 0.010386016240981814015565 -0.015881586467695871234262 -0.049509822750723152251506 -0.015123369346573134128220 -0.013893821919009603435557
288.000000 0.014496353338973776148091 0.010868251450661350898663 -0.016888909922988040723801 -0.052463389983872281419064 -0.015981557373014390610599 -0.014680689441936900507812
290.000000 0.015264433188538626545716 0.011387694897004948038632 -0.017963428327272937951031 -0.055608832431013513475371 -0.016894666345738482138295 -0.015517791438518219529485
292.000000 0.016087871015627298182382 0.011951620686379600330684 -0.019109106422290394328156 -0.058952652234528307717554 -0.017866696827051178897428 -0.016408864896599331673066
294.000000 0.016972980158696113900385 0.012567797405442750896531 -0.020330895584690533706151 -0.062503152523860724953941 -0.018903028747819041605061 -0.017358937903478244973998
296.000000 0.017926022686255281557433 0.013243255557130973951163 -0.021634252927341727362753 -0.066270966068274192450893 -0.020010498971604125106882 -0.018374396264632289477170
298.000000 0.018951424745951201550342 0.013982289315521898714900 -0.023022797597545791720153 -0.070267974798156648819081 -0.021196807708872240222364 -0.019462425870089412188735
300.000000 0.020048961745434575737468 0.014784121803900573607904 -0.024492776555000619204128 -0.074502998550809454436639 -0.022468586279002115274617 -0.020629195113890413937341
302.000000 0.021211556859294308785557 0.015641889120760619352746 -0.026025542773461529666434 -0.078974163992876642015339 -0.023827742307100861079983 -0.021876388701653887852716
304.000000 0.022426633448489250582947 0.016545001821191500368524 -0.027583610900498455043017 -0.083660932231283374749253 -0.025266954351195164418797 -0.023196906703052810189147
306.000000 0.023680811412112409697350 0.017483940048528774646730 -0.029116665030985536960495 -0.088520052155815973082831 -0.026766625977285310455933 -0.024571971425908001318561
308.000000 0.024963244354565629345988 0.018454300580323639707769 -0.030574985187061660268926 -0.093485431576749045134989 -0.028295478561743171719289 -0.025971807912623833675125
310.000000 0.026264641341255157841461 0.019457928740399220435275 -0.031919573114602063645950 -0.098468270900584645155540 -0.029814979747827190931231 -0.027360103981963628666518
312.000000 0.027573594409485310124941 0.020498725718113560562150 -0.033124904813804201264560 -0.103357663384536072048725 -0.031285484182101128136644 -0.028700086178641805861878
314.000000 0.028875337431031589813246 0.021578185311301834731212 -0.034175467938981615723115 -0.108023363616820439192523 -0.032671323014164144193927 -0.029959448413492656415613
316.000000 0.030158707159581635975920 0.022705190522973432015741 -0.035053142311700299926791 -0.112318773943164765261038 -0.033943662686460533695065 -0.031113001872051102708605
318.000000 0.031425169488350786217712 0.023914328814194599215348 -0.035718363873135317021479 -0.116081087717286729477095 -0.035080911266140928084223 -0.032142813535417112669190
320.000000 0.032685937190731734203197 0.025265849905785158630023 -0.036098799788663912813114 -0.119130207430997919759719 -0.036066433915619325323298 -0.033035611929612275494694
322.000000 0.033949309472822646049917 0.026825033986316058204347 -0.036092497509606018268880 -0.121273278011440652224273 -0.036884511567953075228399 -0.033778479031794234055397
324.000000 0.035210028917669979053873 0.028635497374814487814287 -0.035590108944342814523143 -0.122325342897429661936926 -0.037517587965618368062160 -0.034355887576111750203456
326.000000 0.036444331451059006066195 0.030691203216529662489709 -0.034515584090357279145600 -0.122141308543818979948092 -0.037946497982849637653491 -0.034749845095355183510755
328.000000 0.037609282237898597478498 0.032916072080608600736173 -0.032859774252648972503454 -0.120633665504583778571579 -0.038152361148800266466008 -0.034941903375668846576385
330.000000 0.038645641594134201579624 0.035162132679585039740644 -0.030681910488453045110502 -0.117761157661363316528913 -0.038118253648170639935611 -0.034915056138785101336186
332.000000 0.039484057225868687823755 0.037223861606458921724716 -0.028084953654370321124434 -0.113499396166924684803412 -0.037830221360303159516825 -0.034654978653184571879553
334.000000 0.040054683688316473910707 0.038871405019369489886039 -0.025179718243567291574569 -0.107816137224221592072482 -0.037277992574619299437355 -0.034151081321796880607700
336.000000 0.040297733102732401222479 0.039908747256063789587976 -0.022052313354393907052220 -0.100676238332616213577708 -0.036455599586364989539433 -0.033397696774949130193999
338.000000 0.040168659538795600805194 0.040225120653198088993552 -0.018764004173163373323518 -0.092093652532640762897742 -0.035361746928635293119036 -0.032395027835688053330365
340.000000 0.039635329712605346652587 0.039791981940285270358260 -0.015400564394309266061378 -0.082217958632810575481109 -0.034000299606363020010757 -0.031149637263393190056426
342.000000 0.038674807265998187300049 0.038622051910973273503025 -0.012122162690804124535182 -0.071389517301520377667856 -0.032381727414401408060574 -0.029674885564913374563778
344.000000 0.037277078027028530404774 0.036744908144679337691496 -0.009143223312984057743469 -0.060090600160246171457246 -0.030526795357695493682293 -0.027992781192480407914669
346.000000 0.035452317065012367569565 0.034214485827196806921879 -0.006650377842021605936940 -0.048824544797582462851704 -0.028471014472638802444981 -0.026136577840500604258400
348.000000 0.033233914042364760821346 0.031124811449301965915470 -0.004735004720424120655542 -0.038031698505736587223591 -0.026264197037590374800287 -0.024149746261677408620816
350.000000 0.030677228570423622361352 0.027613801263557537224447 -0.003384422318934518329747 -0.028077043262161066605742 -0.023962847155991839898093 -0.022079666729154848875405
352.000000 0.027859997960028359820228 0.023853468930284012217147 -0.002517189727870957054873 -0.019267914659515269354406 -0.021619475877454059908889 -0.019969451144837422479350
354.000000 0.024879498240308120515785 0.020027185094066025233817 -0.002031505715125788303493 -0.011864388347541124368867 -0.019273874806500751466487 -0.017851703233133110054753
356.000000 0.021838331296005129150695 0.016300291520709071085848 -0.001839327044162778227940 -0.006056464736381027454126 -0.016951901951284733399694 -0.015748454957511742041687
358.000000 0.018824730778814663390008 0.012800904207428773912136 -0.001870102657069535939324 -0.001898089572319182870286 -0.014675280281486138833635 -0.013680010893055979254163
360.000000 0.015904259338137258228407 0.009622821519726279526630 -0.002051747181982922687421 0.000747347843385717152190 -0.012475179024864002652606 -0.011676328773384418713288
362.000000 0.013129240345929217917420 0.006840359691467435242218 -0.002294949529707233926157 0.002183193365438441599369 -0.010394287988670574546246 -0.009777731251892123054414
364.000000 0.010553497317109760550435 0.004512667890987942000136 -0.002503613382829002458746 0.002779994863762352049624 -0.008475675934868334010508 -0.008024131281545594449045
366.000000 0.008236377094362571163466 0.002672284692482894408183 -0.002604853137208707793138 0.002867647787055675051571 -0.006750885966116681319305 -0.006444413379088982825327
368.000000 0.006234580939601446110399 0.001315764237867531527212 -0.002566622436501767197392 0.002683168618125497065924 -0.005236846298842547792196 -0.005054114878004841750203
370.000000 0.004587658029636068439394 0.000405376632829492519576 -0.002392678028210555932209 0.002374529207937231024828 -0.003941513763108651577372 -0.003860589256023451779076
372.000000 0.003302225763177136282772 -0.000125227473726627125178 -0.002109321937866308425275 0.002026242630901565512647 -0.002870333556434117184414 -0.002868642639788482849583
374.000000 0.002347568232385645412702 -0.000362141892841259165157 -0.001753660192894007175193 0.001684520185104420838054 -0.002025907913770958607147 -0.002080336845992951811529
376.000000 0.001668318350421479391577 -0.000396460397446407066240 -0.001364368610614874986753 0.001375153463702074837019 -0.001399862709820301259409 -0.001488104364815694006033
378.000000 0.001201260835276860266391 -0.000312085535316855436708 -0.000978840586577082831521 0.001111735327331867971210 -0.000964306884535256082086 -0.001067407841293043510925
380.000000 0.000886343977083927704076 -0.000179537680864610824831 -0.000633800647491632803028 0.000895516589684712473358 -0.000675220179089172883695 -0.000779648898159505726255
382.000000 0.000673641668132132190490 -0.000049470153919358641895 -0.000358117816851325702476 0.000717435912748649764863 -0.000487439603200368878552 -0.000585093146107101857480
384.000000 0.000527084894812204730538 0.000052160541947505415644 -0.000162009165629574549512 0.000566073622343078383667 -0.000366366199120973692459 -0.000452980109619842462657
386.000000 0.000423091118222933672364 0.000119460054352719575207 -0.000037668965286807767207 0.000433584170895129957651 -0.000288892503274244827078 -0.000362420411622435209315
388.000000 0.000346481234280102742135 0.000156486185162989032511 0.000030933806255145366638 0.000316360738886695873687 -0.000239293369340175130161 -0.000299014658577573992984
390.000000 0.000287321128804858213785 0.000170008397383833659636 0.000060087658142959099483 0.000213272494950889816932 -0.000205988079001197802636 -0.000252193341567410968165
392.000000 0.000239267179599921372317 0.000166731434790310512322 0.000063529305916235981615 0.000124840437370007592555 -0.000180454506186236620507 -0.000214334661285486599742
394.000000 0.000199010603207059152053 0.000153044190346561152045 0.000052400185351250230564 0.000052024385900047819670 -0.000157707718977101798985 -0.000181143765510554153415
396.000000 0.000165448079361701135687 0.000134699482818129341339 0.000035179507712748805991 -0.000004877868180687792982 -0.000136486420937972880796 -0.000151669514604521783610
398.000000 0.000138390326538622918107 0.000116093815661992037845 0.000017639109788228470786 -0.000046762610806285830176 -0.000117706331735207040626 -0.000126732803481225298099
400.000000 0.000117366702381633013002 0.000099631218769030664034 0.000002623095335720845415 -0.000075883600255658171987 -0.000102238904723167835210 -0.000106864636386083761903
402.000000 0.000101349207314578652591 0.000086067781754123798125 -0.000009008684557872082701 -0.000094931915860878350556 -0.000090008058819311166383 -0.000091587115228960205805
404.000000 0.000089179853419916218886 0.000075251167943691466759 -0.000017457867838034886508 -0.000106563629093202609684 -0.000080408272343039186177 -0.000079935753963247506838
406.000000 0.000079847813950858058537 0.000066762132047973882644 -0.000023228681629342181199 -0.000112881840537729918536 -0.000072779991205138830010 -0.000070971699430181207457
408.000000 0.000072601976206227621384 0.000060130029267005318341 -0.000026880269144950348772 -0.000115402601562040636198 -0.000066632205696362580027 -0.000063995099946074785737
410.000000 0.000066890028152551746655 0.000054962977926584078553 -0.000028911002004515702363 -0.000115331210893042095003 -0.000061618788209353910911 -0.000058503159057205325925
412.000000 0.000062312019456307573065 0.000050917840228364424503 -0.000029760482944223711448 -0.000113503650465441452292 -0.000057472296452673974504 -0.000054114262868042265235
414.000000 0.000058531784083727577610 0.000047676593151259204402 -0.000029761316744852756927 -0.000110550765628513201827 -0.000053996284212935761278 -0.000050547107042118220399
416.000000 0.000055333060890606007066 0.000045004750393011323730 -0.000029218592724181128195 -0.000106891065739794281450 -0.000051019656901174102390 -0.000047571625633779574048
418.000000 0.000052536180676108087354 0.000042692358929627837892 -0.000028370248635309512826 -0.000102870911973420618517 -0.000048397120100751735801 -0.000045007413201687151592
420.000000 0.000050012636287936044653 0.000040640766994712984985 -0.000027288464612832904094 -0.000098585052388943788257 -0.000046021794544250039984 -0.000042724162316827879080
422.000000 0.000047681791070489326460 0.000038749072351259218237 -0.000026109031959777154229 -0.000094181746461168903192 -0.000043822749985375183176 -0.000040636969431290066918
424.000000 0.000045500154010777927769 0.000036963652874163983658 -0.000024915735490156545179 -0.000089776612518389364305 -0.000041766890998172269162 -0.000038703121157851734882
426.000000 0.000043434730649988690645 0.000035266433706537200245 -0.000023718027424454792446 -0.000085432953158356758215 -0.000039825279103569844591 -0.000036887908509989421639
428.000000 0.000041451320073556092527 0.000033606161806647585433 -0.000022603667931405382267 -0.000081230571040575346581 -0.000037972434603514954813 -0.000035163455988625854558
430.000000 0.000039535147802840387842 0.000031994811003109692525 -0.000021525703665764123310 -0.000077144964346177854943 -0.000036202209376471025421 -0.000033520170542276966831
432.000000 0.000037692629580749137863 0.000030444217388872530131 -0.000020489512235939472720 -0.000073203799392961910793 -0.000034503146278738428497 -0.000031945848356706925712
434.000000 0.000035934514601666968500 0.000028966036936473936420 -0.000019506057596038065894 -0.000069434310490766154014 -0.000032884149468003538318 -0.000030447126570219889619
436.000000 0.000034233720077833720570 0.000027518777843782555155 -0.000018606186874069591670 -0.000065929401409965906924 -0.000031335617170918087697 -0.000029014018941773070398
438.000000 0.000032605580115111632141 0.000026165644878279416046 -0.000017701935788515811397 -0.000062585585960927658626 -0.000029850281247187208412 -0.000027639695047062477328
440.000000 0.000031036028739070502778 0.000024840276427311856500 -0.000016880627037639382325 -0.000059521937780399384026 -0.000028423809707231167395 -0.000026320015542358302817
442.000000 0.000029527517131448394872 0.000023583282046560949575 -0.000016095822285546654274 -0.000056639098206442162219 -0.000027048710388695431723 -0.000025048279667941486011
444.000000 0.000028087746859263277606 0.000022401589836789783614 -0.000015357663961597086620 -0.000053933897040552536385 -0.000025739328687497706156 -0.000023837897892305397358
446.000000 0.000026694473644902713157 0.000021264038633671045647 -0.000014662202559254484756 -0.000051386863239035021666 -0.000024485248466970803996 -0.000022678482655263695840
448.000000 0.000025373946578702166217 0.000020202587708152886279 -0.000013988397648708666431 -0.000048939787014382930830 -0.000023285338245186028966 -0.000021568730792602990634
450.000000 0.000024121602154112486380 0.000019232219470369047988 -0.000013286842986209824744 -0.000046581517840763962538 -0.000022146664548096165988 -0.000020515371202582543154
452.000000 0.000022952516493780656537 0.000018296649684643555831 -0.000012653553461217800037 -0.000044374690811416539807 -0.000021062530619368186312 -0.000019512789109587473212
454.000000 0.000021839239314971616398 0.000017417962268007547763 -0.000012027421231118105055 -0.000042200888921534324692 -0.000020027873450577009180 -0.000018555191864263098547
456.000000 0.000020771373029239433532 0.000016578903161810787267 -0.000011431392784648425340 -0.000040147020329918894238 -0.000019048960501025176189 -0.000017649148412588926756
458.000000 0.000019767079225522747593 0.000015811725152489296552 -0.000010827404152982147945 -0.000038194001185173914606 -0.000018124297858650489023 -0.000016792542861886785151
460.000000 0.000018841710709062501868 0.000015089941333725795478 -0.000010282640106482585196 -0.000036294254283747197636 -0.000017251324477652728740 -0.000015983488847311957400
462.000000 0.000017930964218530261623 0.000014385089743832122082 -0.000009761682023900660057 -0.000034535143029427867721 -0.000016415212261976175280 -0.000015209279599123167500
464.000000 0.000017071556649573487818 0.000013703674224311991316 -0.000009293418063777083928 -0.000032843572798436195600 -0.000015618378514161652878 -0.000014471316589722151258
466.000000 0.000016234382701973356668 0.000013014475342152882875 -0.000008867615609816702178 -0.000031218740403842997594 -0.000014870469445622999706 -0.000013778025737127424805
468.000000 0.000015452284105302628456 0.000012397941614771679089 -0.000008390808402780920304 -0.000029644347970370439935 -0.000014147949391599822796 -0.000013108758947983022408
470.000000 0.000014703086568809896770 0.000011756642001468839951 -0.000008007572342820352298 -0.000028206613475133876235 -0.000013462659453295805991 -0.000012473702908467504231
472.000000 0.000013977154794807861808 0.000011185904634690213688 -0.000007596039317884501444 -0.000026783324942589187566 -0.000012801198223542380978 -0.000011860817157396233003
474.000000 0.000013303191078420743278 0.000010625613909418515503 -0.000007235071628773963204 -0.000025447761881271439128 -0.000012182010405606143500 -0.000011287918932736657377
476.000000 0.000012661420439293731273 0.000010141076064870305790 -0.000006856981325984324782 -0.000024170581839828749062 -0.000011587938393682982447 -0.000010736762640353844897
478.000000 0.000012024105598082836409 0.000009619978881116878004 -0.000006545987946107340026 -0.000022973168902120010774 -0.000011022897138366702109 -0.000010212895918370580191
480.000000 0.000011426643330975638226 0.000009128603364634443841 -0.000006272694467190460056 -0.000021867826870140695918 -0.000010475890351046186359 -0.000009707406969383091600
482.000000 0.000010884637368915922102 0.000008708242049194266448 -0.000005948159740735472921 -0.000020843171923617124152 -0.000009975519191323045114 -0.000009243207090885361996
484.000000 0.000010345607877001976321 0.000008247934048860042631 -0.000005705647372915985192 -0.000019847345217330458604 -0.000009483196942314711095 -0.000008787243096650842293
486.000000 0.000009862700400784712711 0.000007872958545301646769 -0.000005374113951978520655 -0.000018860430028179226200 -0.000009027263234975150269 -0.000008364723329163673831
488.000000 0.000009368829471739607839 0.000007480848644479686908 -0.000005085024643457138754 -0.000017869739395005869150 -0.000008582146612876270469 -0.000007952811704673068058
490.000000 0.000008913006953778802922 0.000007097132304750507261 -0.000004897838594984252243 -0.000017063009116020969546 -0.000008167317275389239395 -0.000007568550368234626649
492.000000 0.000008477405331620015727 0.000006757088076073123097 -0.000004636745219655843880 -0.000016286427805509143458 -0.000007779897539534832176 -0.000007208614379207815792
494.000000 0.000008055290218505155699 0.000006404822389060022315 -0.000004407904634497699883 -0.000015514760272765317113 -0.000007408632297931975365 -0.000006865130265706228669
496.000000 0.000007679082869940807431 0.000006122259888281469043 -0.000004173981368453183317 -0.000014809335711445925022 -0.000007060919217794456089 -0.000006541946854678718946
498.000000 0.000007290285342847690965 0.000005816536538776021416 -0.000003987548910411548016 -0.000014071295238122159246 -0.000006720081910096279760 -0.000006226106601452793429
500.000000 0.000006933735082472672538 0.000005491629702244197513 -0.000003873323444615675808 -0.000013431903807893973008 -0.000006386303351281586082 -0.000005917267572634010699
502.000000 0.000006605319311017749951 0.000005234470074639203352 -0.000003716684145425539089 -0.000012832179641643593301 -0.000006085850212083854421 -0.000005638501005671723847
504.000000 0.000006291384016773073480 0.000004993995049632300035 -0.000003498810728067173757 -0.000012205084027838776934 -0.000005804461502052502040 -0.000005377851636651766551
506.000000 0.000005995861060838846629 0.000004768021219934337398 -0.000003307751720571918871 -0.000011631801900656985722 -0.000005536812355423299745 -0.000005130214831045401535
508.000000 0.000005715804471990972004 0.000004531719412167421000 -0.000003207128790308788618 -0.000011101096484567213768 -0.000005273444937372903760 -0.000004886242833307759850
510.000000 0.000005434619001820609991 0.000004307833293927843314 -0.000003058565246378923323 -0.000010636325535778984975 -0.000005026805721154116574 -0.000004657913085353680981
512.000000 0.000005170146289381728469 0.000004117326488522051713 -0.000002902363069219394364 -0.000010090940522210483933 -0.000004785494990579893157 -0.000004433508319506442895
514.000000 0.000004931239483545089075 0.000003942147438446855881 -0.000002716158510177182338 -0.000009607492647134429243 -0.000004561493505256498432 -0.000004225500856823564378
516.000000 0.000004710038231899848089 0.000003770425561685573868 -0.000002548553070100101778 -0.000009111205409608013524 -0.000004352430883041005227 -0.000004031969584025493460
518.000000 0.000004473135280430107735 0.000003564520855478603979 -0.000002464843689849288254 -0.000008723244541602683715 -0.000004150632964919571422 -0.000003844941061640762638
520.000000 0.000004246852861391001364 0.000003370704097485924709 -0.000002348903447556039840 -0.000008281429585598499172 -0.000003951565008883876032 -0.000003660136581756405440
522.000000 0.000004066552554952856798 0.000003217023613460285612 -0.000002280310601147041768 -0.000007937509561911897121 -0.000003768064385192366534 -0.000003490080634389229108
523.980000 0.000003889522381553787142 0.000003074003575483115481 -0.000002266107446052424041 -0.000007663927089555580682 -0.000003595995802834124355 -0.000003331323755333200809
