0.000000 -0.000000000000000000000000 -0.000000000000000000000000 -0.000000000000000000000000 -0.000000000000000000000000 -0.000000000000000000000000 -0.000000000000000000000000
2.000000 0.000413285474466900933175 -0.000242967225171727366911 -0.000297668055058396925291 -0.003227554642457439778441 0.000309930621391164905047 0.000314978019574202114383
4.000000 0.000610942608384258505072 -0.000105571120228803363040 0.001183046476343347676308 -0.002039530005893125299415 0.000561330511633408133117 0.000566457147122079738080
6.000000 0.000163975533127411101774 -0.000693466986766401991861 0.002147356822682412215431 -0.000573849570882876535566 0.000706577572212177388612 0.000710292829973335889879
8.000000 -0.000480167046541047693765 -0.001332808621241731231177 0.003459374034186151174869 0.001271985269189447424754 0.000955787376062384617589 0.000922615987900853680090
10.000000 -0.001855204958513836498851 -0.002809044691498728627682 0.004861181120053976317807 0.003506666861093420389101 0.001433822972933792736991 0.001333762791604954384833
12.000000 -0.002958692923819159371207 -0.003732136687797000390576 0.007024563091958755875477 0.006209303294775571357977 0.002127898262275267939059 0.001901364527563737492899
14.000000 -0.004429495368164984049619 -0.005304007161435583990461 0.009686191877791541088305 0.010445216632840719286901 0.003268727147067919825557 0.002782534273771967905237
16.000000 -0.005898634534838334900209 -0.007432031837136256549603 0.011573350119350197737211 0.015545263692097334440323 0.004897510030073298770148 0.004070237250467702988521
18.000000 -0.006155851861124969452710 -0.007952765680313752041930 0.015142049337964902031017 0.022851192927431762669244 0.007050680589698543609956 0.005712583521221547069868
20.000000 -0.007122106675251141036376 -0.009617902892377818563352 0.018229286528629751878983 0.032389028804727160171240 0.009607495946220378710279 0.007643055222662491036967
22.000000 -0.010099026562300628465096 -0.013664248191473606433566 0.020892414832818034797768 0.043339502642684123168149 0.012676611566827039254135 0.009929405465310757461506
24.000000 -0.013722371274746540323330 -0.019052489413318943883846 0.022698404917282904297293 0.056236213426061616715845 0.016177609614506510693488 0.012508233709644345568734
26.000000 -0.016832121674256003696080 -0.023147623388222186152641 0.024441544647377997506732 0.068370558661007593825865 0.019953417386371238156917 0.015378236870353534024303
28.000000 -0.020764801029117103958743 -0.028178767358374160606482 0.026356331208037011432088 0.082980410401939014297668 0.023591409938441103288920 0.017966362553109016531039
30.000000 -0.020848171591674076463807 -0.024907123570868567458136 0.034469531666755232057753 0.101798986480792261200001 0.027233717326899772176452 0.020359272285359577420172
32.000000 -0.022192327900092859160885 -0.025128956040625156920232 0.038571416980054534784372 0.119514951731381963151435 0.031008696076007719738543 0.022899556400708152154033
34.000000 -0.022866902048378674044971 -0.024548708512825000160884 0.042724152848762228518176 0.137070131480417939373595 0.034520136955886633611801 0.025330622646987932533591
36.000000 -0.024403015352519184105740 -0.024234847784842788315229 0.047702023449733274573781 0.157289056127446619237631 0.038374607026755838679044 0.027913012568685384440226
38.000000 -0.027005754305425073991120 -0.026010794650156258966955 0.052571081057083426935073 0.177388972497381586235221 0.041840171910890552875451 0.030260881786806980570104
40.000000 -0.030773524539359976837094 -0.028518679852090576820611 0.061426432290586210904770 0.201004400415000977764279 0.045853590544748266955022 0.032974762919087567680787
42.000000 -0.034971270086166350576917 -0.032549541906537741986494 0.069563861746737509772487 0.222278408890582895862664 0.049886413927635202270050 0.035794261787121292583969
44.000000 -0.038871505582511282905767 -0.036522735105786373333014 0.075815984521229548565024 0.240169741045417023395103 0.053659777370564036569345 0.038691462133518969568335
46.000000 -0.043865423819442840580596 -0.042611847235502986475097 0.078989491398830796731190 0.254505694412011429506038 0.057567282140478175100906 0.041870376577046404531490
48.000000 -0.049425300937260913114457 -0.049641378404174353600187 0.082319137960266436371271 0.269433571016314488133503 0.061539752685130108544875 0.045155104844162671784424
50.000000 -0.055273188347870275127782 -0.057424362210636126224728 0.083139335972073652447634 0.280438324523694493262127 0.065130164841338045178532 0.048468275091175884450312
52.000000 -0.061817349239358151957724 -0.067921445914075659344711 0.079025732162736672670178 0.287920166412784728215968 0.068161039746052268228915 0.051466400309485675623744
54.000000 -0.069186881265603961121968 -0.080191861401307351631118 0.073608744870597653253697 0.293270573124031153078306 0.071129459771819114610736 0.054342648042990514267725
56.000000 -0.076428459107000717986935 -0.090973061108015743081445 0.072924653879169368253521 0.302198948082609719634206 0.073327491239816161572307 0.056369118931531757288322
58.000000 -0.082601967678989335341910 -0.098438683561987358472400 0.064854437935244688140379 0.286128712647282734682364 0.074844358651369541357568 0.057841652494180828547599
60.000000 -0.086970907342261413730533 -0.103154263179997054966641 0.047707742831422934870478 0.249762245387318670974963 0.075527930392113903912410 0.058658340659028383734519
62.000000 -0.090790376672382142042572 -0.106881116934443978760960 0.027322829703173727444732 0.211287105511694439652359 0.075152216833045779043054 0.058532759484650295767061
64.000000 -0.092622818654458982656763 -0.110036482842909441592916 0.006261772274733620052833 0.173953966699284340302611 0.073201339741664275817534 0.057296575445177432006627
66.000000 -0.092352096237874312101290 -0.108036390075376659281048 -0.002426158206342726199323 0.144445773815033262632568 0.070758218554436688729758 0.055768708846513026511360
68.000000 -0.090461615867666086976406 -0.103592137164577338670490 -0.006858253159395842797619 0.117209218500895329118094 0.067786224494795210837594 0.053937411749005029215631
70.000000 -0.087883538565911870077407 -0.097759620409926500927966 -0.009174587747607706317288 0.091762458507505917371105 0.063808143849408430203773 0.051605195754341130764953
72.000000 -0.084484288047922698194903 -0.090784831249927921970055 -0.010905563348921600008712 0.062914984551691074954327 0.059718879441546982023148 0.049086635685453093580488
74.000000 -0.079412393277594833795874 -0.079915489207961043494066 -0.009509427986430065218859 0.039851181838156078673929 0.056193854421202317495077 0.046758904595489460265245
76.000000 -0.067388423268271852029088 -0.061288085687580998173196 -0.003265699471986587779787 0.019073902090399545705690 0.051579633577492546570031 0.043473432701844054448781
78.000000 -0.056586788749074697080221 -0.047257527172712567031798 -0.001930539959862713397104 -0.002588838119411094717409 0.046790858494408726908631 0.039808068135347450533512
80.000000 -0.049101369408030906549278 -0.037865361051391752122974 -0.002302565974270079449809 -0.016318348559025593058625 0.038519315709986685913879 0.033572241118887555244577
82.000000 -0.040399286273024921645192 -0.027241399358871553476602 0.000608504971364416148705 -0.020307223986044321828448 0.026700440503212328341442 0.024694892245563569016520
84.000000 -0.031474269872442721396322 -0.016389910923563989764151 0.005829861458920213880541 -0.017930491618386022734111 0.020022748383128907007089 0.019441987893633303624563
86.000000 -0.023874193782275444225549 -0.008991838967862930687147 0.008241705730782811212265 -0.013238214211725838134748 0.014639995159948886865875 0.014986698930811802321639
88.000000 -0.016511764997329300697082 -0.002722229428497517037672 0.010915038060525600327466 -0.008446545647455852567909 0.010782654120223894231301 0.011527224001354946514297
90.000000 -0.009604091891497223629215 0.002475167303174615526101 0.011897806888389077933921 -0.005830429271160681402308 0.007716121357697849035551 0.008652481846085066652385
92.000000 -0.003070797850977799621497 0.006175487157547590762185 0.011833195842096758121365 -0.004614896924628567563553 0.004150759383855812112429 0.005415451095369262779489
94.000000 -0.001055869515384642593619 0.005301819637579702725050 0.008944051094346944924540 -0.005792528257530512453277 0.000606187425083067055187 0.002429665825981707199394
96.000000 -0.000682086728978244997805 0.003570162584514495387328 0.005814877746203516925561 -0.007063140245115599562264 -0.001866445943125689520964 0.000245106833524827373485
98.000000 -0.000095946858942615119415 0.003058954622310274071989 0.004415520484659977117070 -0.006514854720113956790262 -0.002818491411129535155478 -0.000809732722572936778997
100.000000 0.000136333994274410563296 0.002319205787254881474813 0.002711356041445551253583 -0.006108207483797358124111 -0.002261170455902145309118 -0.000660226129374482891866
102.000000 -0.000053946016158199678085 0.001117889294995731350180 0.000470172633686623015360 -0.006119982519447876578855 -0.001212713880066064540270 -0.000073528716989095527635
104.000000 -0.000004832182458637147267 0.000117163295161458564059 -0.002258787013939661005024 -0.007020260689255063135672 -0.001294451403703373963683 -0.000236913870766917284381
106.000000 0.000187627898229348157640 0.000232946529844169341467 -0.002737575394983017551542 -0.007207891747552796699039 -0.001238265677615838118719 -0.000270909145675988203856
108.000000 0.000476901493890312497444 0.000635607616622135785864 -0.002440308573072907244450 -0.007092704170994493760583 -0.001230903521057477752187 -0.000347479270797847075540
110.000000 0.000774227804629815845663 0.001008830819317093827059 -0.002193720024294128472658 -0.006977686456493039854343 -0.001353423432481900418045 -0.000546356840330751067879
112.000000 0.001010212198861645382236 0.001289642320199340264769 -0.002013060621729977940630 -0.006843824715475159241318 -0.001291813382935947437241 -0.000584016755372650307569
114.000000 0.001212952693093331639485 0.001524945620338351206374 -0.001861011505926104918351 -0.006698306647984822274899 -0.001250997373910381609691 -0.000638483775899722637466
116.000000 0.001469979060683862612940 0.001797361835176706145942 -0.001689327317020378497678 -0.006546525899900861381053 -0.001390699875660559052190 -0.000852950691157862385047
118.000000 0.001713500935526794232561 0.002040451773308405141599 -0.001572769114076137328406 -0.006470423678485647325798 -0.001620224446199454958195 -0.001115222949497526091361
120.000000 0.001922937628231998971606 0.002223087490639110395951 -0.001522566780536675160734 -0.006459524853992008527892 -0.001858704586254375209012 -0.001368277540743625866199
122.000000 0.002069176095814237448245 0.002341317038394144078167 -0.001519345316342049848068 -0.006480218583494396292211 -0.002020208831820993929107 -0.001534252732128260632294
124.000000 0.002151451415333956434378 0.002396144914893331458183 -0.001561609264563318562324 -0.006532938725088670815777 -0.002084869212537050504191 -0.001593836194605763312282
126.000000 0.002218473036684646092220 0.002439319479781694964549 -0.001602883651523935104946 -0.006583252494619024064448 -0.002135168547982884551528 -0.001639665828647097773479
128.000000 0.002275954696563642441071 0.002476777451761783249012 -0.001639191490118137826959 -0.006629438140642829498106 -0.002178391797877516234544 -0.001679912678624222556814
130.000000 0.002325551037432901750612 0.002509842236364708597390 -0.001671226821658442071236 -0.006673458264936890302343 -0.002215934881237727020753 -0.001715374581986540969414
132.000000 0.002368752217425530281342 0.002539588179626016926915 -0.001699702680443297394056 -0.006716746094455568368009 -0.002249117991118156859726 -0.001746940907113929755679
134.000000 0.002406810942077542390949 0.002566832385762310344418 -0.001725335822611366110371 -0.006760365786269162576005 -0.002278984800179149460692 -0.001775346868209181760284
136.000000 0.002440767142723466662235 0.002592197961989975169700 -0.001748792731184162143471 -0.006805075781947675719885 -0.002306346431090974466449 -0.001801191353890430144752
138.000000 0.002471483089151295300251 0.002616167781113341080784 -0.001770671008657533811517 -0.006851428513208567341874 -0.002331839773959865861480 -0.001824973527120029399493
140.000000 0.002499679542678574263592 0.002639130599640521213090 -0.001791470538525322944365 -0.006899798229709776763163 -0.002355975934435550808027 -0.001847120823959417026949
142.000000 0.002525967307305421183372 0.002661416633709377289885 -0.001811597935354540209185 -0.006950443523302266696229 -0.002379168903804404662516 -0.001868002922581657671355
144.000000 0.002550843945197492877719 0.002683284716431969061518 -0.001831390850630140558486 -0.007003537861472674229402 -0.002401755268252028438503 -0.001887938274874648028959
146.000000 0.002574734091153970619997 0.002704967866114974840708 -0.001851102733253990814677 -0.007059190560205435768792 -0.002424014763188396537341 -0.001907204562189248079826
148.000000 0.002597989277840641753753 0.002726660815674054015589 -0.001870955968095430093159 -0.007117510768565272691322 -0.002446178938424021891140 -0.001926040757118753065508
150.000000 0.002620903890364440110006 0.002748529984420528590044 -0.001891112778984769399182 -0.007178572120078880250404 -0.002468443609650101955300 -0.001944653853881225021721
152.000000 0.002643720886466709510398 0.002770717502702750318494 -0.001911719795261455738522 -0.007242448739426245347961 -0.002490972855898532754837 -0.001963221097648398284774
154.000000 0.002666647914016512938007 0.002793350795663634370675 -0.001932888808059414964199 -0.007309223360753905156251 -0.002513906737984726493668 -0.001981894896363743316381
156.000000 0.002689861089165997490302 0.002816543947065439004035 -0.001954712588491589169565 -0.007378974821000558285966 -0.002537370012495533851127 -0.002000809607593265725123
158.000000 0.002713506784195632553364 0.002840391941495132126227 -0.001977283445368177485640 -0.007451811081883048110130 -0.002561467733666953575794 -0.002020078498763711993130
160.000000 0.002737714928986936021443 0.002864986928510870976133 -0.002000676691856424858212 -0.007527837456997709536521 -0.002586299521874653537662 -0.002039805310994960256543
162.000000 0.002762598434792939289251 0.002890413393397041168231 -0.002024960036855423788776 -0.007607175723808458356334 -0.002611951444586038933310 -0.002060078870813315029403
164.000000 0.002788257258177632633145 0.002916746895651010831191 -0.002050203345869896966874 -0.007689960768158234961922 -0.002638506290267885346507 -0.002080981048557833511942
166.000000 0.002814785888079973479037 0.002944066209234590981991 -0.002076471935576247422606 -0.007776347782472181092983 -0.002666044542458424326109 -0.002102588666593768317731
168.000000 0.002842267251311220849219 0.002972439082725963997028 -0.002103837800480596199187 -0.007866504329576116255618 -0.002694637920202552338472 -0.002124969366834871496719
170.000000 0.002870782508712345360014 0.003001936393402466173030 -0.002132370194434847314457 -0.007960610162495048575115 -0.002724364744035238320580 -0.002148192759672689928357
172.000000 0.002900413078957685998616 0.003032635197753014589389 -0.002162133876279166526391 -0.008058859963716647964449 -0.002755300958299911236182 -0.002172325034332187390640
174.000000 0.002931234176289136510174 0.003064602927240709599049 -0.002193205990793073174167 -0.008161466403677269595973 -0.002787521074518668415254 -0.002197430010184477176122
176.000000 0.002963321647150678195271 0.003097911988304897189239 -0.002225668897857076538455 -0.008268659151026239509386 -0.002821102628903280826189 -0.002223572122951504928534
178.000000 0.002996757859244341543059 0.003132643622778903593623 -0.002259600913534329843374 -0.008380683091079093802178 -0.002856128761235475575081 -0.002250819352168657774133
180.000000 0.003031623052833085345953 0.003168877036649706338545 -0.002295087966585675123138 -0.008497801281405802445446 -0.002892684817694561767720 -0.002279240462686818631532
182.000000 0.003068000882063826040280 0.003206694984329678047019 -0.002332229788399787628189 -0.008620300447922210618223 -0.002930858363796172601223 -0.002308905248683921097169
184.000000 0.003105979362705334981959 0.003246184539619831506407 -0.002371120835980919903940 -0.008748486157264513674026 -0.002970745985722659642664 -0.002339890126277757633616
186.000000 0.003145650115746178102083 0.003287440312434913424616 -0.002411871583502232102569 -0.008882686612029703707161 -0.003012446968963262711877 -0.002372272999861578437336
188.000000 0.003187111629335699289345 0.003330560312438161918447 -0.002454594366992932184118 -0.009023245811281320818975 -0.003056066920939159211462 -0.002406136425513432774287
190.000000 0.003230466017699890578230 0.003375647168095687392086 -0.002499412826274018725042 -0.009170544490442876506275 -0.003101719243772422997946 -0.002441568770925607936850
192.000000 0.003275820378754243280411 0.003422810268250028181702 -0.002546459554234701151004 -0.009324981428084683568458 -0.003149524832545876756873 -0.002478663739394241886937
194.000000 0.003323294644049273622449 0.003472170679469745342705 -0.002595876181556093943020 -0.009486996528183386928612 -0.003199613602887339033204 -0.002517521892331195040859
196.000000 0.003373011526378675000587 0.003523852726050370927358 -0.002647816566273687981931 -0.009657052618729022180899 -0.003252123105810668379778 -0.002558249696773970838920
198.000000 0.003425102930009191800481 0.003577990482172181165021 -0.002702444724824359413573 -0.009835652429489168471766 -0.003307201881473517506016 -0.002600961741783440386161
200.000000 0.003479710513180193660193 0.003634725780281794146886 -0.002759939696963773468619 -0.010023334602673194398959 -0.003365009459084870348244 -0.002645781028378303440657
202.000000 0.003536984758503548126329 0.003694211254003019768294 -0.002820489925717918362064 -0.010220675861058171191020 -0.003425715308442718164822 -0.002692838288926430873049
204.000000 0.003597089892393602085507 0.003756612219501446418152 -0.002884303632631617618498 -0.010428298330839854551888 -0.003489504825432987195760 -0.002742276224078623366592
206.000000 0.003660198240200350418977 0.003822103520470856389407 -0.002951598142435214386370 -0.010646875380442994904473 -0.003556573634910235436751 -0.002794245513253215858207
208.000000 0.003726495549111715106794 0.003890869056325961614778 -0.003022622424717728850663 -0.010877130859999870407528 -0.003627133538890885740974 -0.002848909017337124521124
210.000000 0.003796182171493716304977 0.003963110643443104944006 -0.003097628971714417537436 -0.011119841057566902733922 -0.003701413334239879882742 -0.002906442838006314047239
212.000000 0.003869470599059848022611 0.004039040390905345237482 -0.003176900150543939156667 -0.011375846063390267215443 -0.003779658484248737439215 -0.002967035482217819306050
214.000000 0.003946591717995425428744 0.004118888199621685737573 -0.003260734764888888279760 -0.011646046777398262259129 -0.003862133557494012991995 -0.003030890580253036217795
216.000000 0.004027790827212147581338 0.004202896420910907926416 -0.003349464388687900355535 -0.011931419225807371464754 -0.003949122075694693791148 -0.003098225776839305146970
218.000000 0.004113332359374284596942 0.004291328211625682759189 -0.003443432434410492997551 -0.012233005550221404816869 -0.004040930622805929961494 -0.003169276765737834202635
220.000000 0.004203498201067207978854 0.004384459546731824149124 -0.003543022989991095883511 -0.012551941436867972839986 -0.004137887443119157501736 -0.003244295585950856316421
222.000000 0.004298592685724433350158 0.004482590523663168222135 -0.003648641486165375095313 -0.012889436886156391964819 -0.004240347826468743482053 -0.003323554901196830099752
224.000000 0.004398940829911585255474 0.004586038988982256946192 -0.003760725382788338271717 -0.013246793688447418627097 -0.004348691609756084180960 -0.003407346466142483886602
226.000000 0.004504889023713499682233 0.004695141098244441126008 -0.003879747216467193792616 -0.013625416005426778387477 -0.004463327374421580118202 -0.003495983905864849528022
228.000000 0.004616809334447230690757 0.004810258347678359608368 -0.004006208662560698831323 -0.014026806685941691638098 -0.004584692756111102135419 -0.003589802981451876377067
230.000000 0.004735098529262676304852 0.004931773077181653835988 -0.004140650114704363254914 -0.014452573295134999581402 -0.004713257675330278020920 -0.003689164293961040824027
232.000000 0.004860179597653301042381 0.005060090917673598295834 -0.004283654522618424685676 -0.014904441644407717335041 -0.004849523767472542663814 -0.003794452724910665156882
234.000000 0.004992505446174551678173 0.005195644612170683199204 -0.004435831774803529817253 -0.015384243556797674509773 -0.004994027678085884158765 -0.003906080065919549908909
236.000000 0.005132557702169591833108 0.005338891654334019382100 -0.004597843161889665630770 -0.015893936103586744218452 -0.005147341287856389488442 -0.004024485229349195405946
238.000000 0.005280852428264169728944 0.005490317873074353899332 -0.004770392579437899606420 -0.016435604516039960254492 -0.005310076262322038602448 -0.004150137878669774883778
240.000000 0.005437941691507958488772 0.005650443063378319738521 -0.004954234440100579311972 -0.017011466300014224661830 -0.005482883023333102838481 -0.004283537564486185680868
242.000000 0.005604420508627385583145 0.005819825875667100287258 -0.005150174470682445694580 -0.017623879559254328891482 -0.005666458523259108870374 -0.004425220183823103115017
244.000000 0.005780928251408837606484 0.005999062924631380459839 -0.005359092953102345506522 -0.018275364099154742247855 -0.005861548790591247261317 -0.004575759975965081743920
246.000000 0.005968160432198818532434 0.006188804588341893439529 -0.005581947784370855890346 -0.018968614719043961486244 -0.006068958451495168673895 -0.004735777233746191715313
248.000000 0.006166875689822780975957 0.006389759957472629023356 -0.005819798396002060295040 -0.019706538856733214759576 -0.006289560894655734507586 -0.004905946450511245934822
250.000000 0.006377909195521401335138 0.006602712528694575262744 -0.006073829641119497108059 -0.020492299459749691720178 -0.006524314447738095538998 -0.005087008885916582782982
252.000000 0.006602180380503466436415 0.006828526933920590728799 -0.006345382526291891249481 -0.021329375206050670693569 -0.006774279178318785323010 -0.005279785903313323827679
254.000000 0.006840708407297523864499 0.007068164647446082901605 -0.006635982779391101475663 -0.022221629364189570549071 -0.007040641540760104490071 -0.005485197747227337113085
256.000000 0.007094621770552829616296 0.007322690942900189105258 -0.006947372018464945987726 -0.023173400905845051994669 -0.007324739116400238655991 -0.005704282281379384825226
258.000000 0.007365165674666612413701 0.007593277664561476868188 -0.007281538430608248436970 -0.024189603195862028478524 -0.007628087737177476589101 -0.005938215055400536748764
260.000000 0.007653704687545951484973 0.007881198320724583025743 -0.007640728492812121248889 -0.025275818333103019369679 -0.007952404591069344233500 -0.006188325639236623432193
262.000000 0.007961717750986058161899 0.008187809198282901268495 -0.008027450856043271201767 -0.026438389207987082057949 -0.008299625549291381187977 -0.006456108550258664487143
264.000000 0.008290778416949539514347 0.008514512218625990697118 -0.008444456028992151919166 -0.027684480625067252324012 -0.008671907405117123407434 -0.006743221896086140816629
266.000000 0.008642531340696585698269 0.008862708540350304822764 -0.008894694320720363325816 -0.029022097103453346755852 -0.009071613094009922315109 -0.007051472447468762165534
268.000000 0.009018659540475378044722 0.009233746228413124493284 -0.009381246031280774180794 -0.030460032498594094563238 -0.009501271642230191272205 -0.007382781216185741769709
270.000000 0.009420849911595250911200 0.009628869115316688459538 -0.009907237212776845783346 -0.032007756376739832093747 -0.009963514945662570523877 -0.007739131594398912690480
272.000000 0.009850764791406892845194 0.010049181789985329668613 -0.010475755308652023867211 -0.033675214279398242578356 -0.010460995063229575063879 -0.008122504194714949901646
274.000000 0.010310028579541875154435 0.010495651006689254991500 -0.011089786434571948653405 -0.035472574263390989346423 -0.010996290677950623301817 -0.008534806625507053087776
276.000000 0.010800234087295716364774 0.010969156540443905645255 -0.011752182406249544327492 -0.037409927977596589554476 -0.011571821357440722349841 -0.008977813455281011961739
278.000000 0.011322986240442610428314 0.011470609485987610931534 -0.012465662636115417902238 -0.039496984499989604144865 -0.012189786493143903514658 -0.009453130851660402483860
280.000000 0.011879991179811791660037 0.012001163518216607234423 -0.013232829320525477459491 -0.041742799616726153355550 -0.012852153974255179844088 -0.009962205974289629895058
282.000000 0.012473183327679123952314 0.012562475519149702424260 -0.014056198962760863002686 -0.044155550005684780778825 -0.013560706559566315654308 -0.010506386544362924032048
284.000000 0.013104895966537195850510 0.013157008926836974774255 -0.014938267138795958965947 -0.046742450290907677779018 -0.014317163247420886668104 -0.011087039120006079648273
286.000000 0.013778051001821748841603 0.013788327734914581843007 -0.015881586467695871234262 -0.049509822750723152251506 -0.015123369346573134128220 -0.011705718045926892870168
288.000000 0.014496353338973776148091 0.014461336092988993223818 -0.016888909922988040723801 -0.052463389983872281419064 -0.015981557373014390610599 -0.012364380468386452355256
290.000000 0.015264433188538626545716 0.015182359050653924936736 -0.017963428327272937951031 -0.055608832431013513475371 -0.016894666345738482138295 -0.013065632091198646491659
292.000000 0.016087871015627298182382 0.015958978141986313731282 -0.019109106422290394328156 -0.058952652234528307717554 -0.017866696827051178897428 -0.013812982144289959879346
294.000000 0.016972980158696113900385 0.016799480336420234000139 -0.020330895584690533706151 -0.062503152523860724953941 -0.018903028747819041605061 -0.014611051838488337689670
296.000000 0.017926022686255281557433 0.017711574473053749712026 -0.021634252927341727362753 -0.066270966068274192450893 -0.020010498971604125106882 -0.015465582765408748822100
298.000000 0.018951424745951201550342 0.018699989636605570536565 -0.023022797597545791720153 -0.070267974798156648819081 -0.021196807708872240222364 -0.016382912843273107067477
300.000000 0.020048961745434575737468 0.019763168485621561420995 -0.024492776555000619204128 -0.074502998550809454436639 -0.022468586279002115274617 -0.017368395946733939522177
302.000000 0.021211556859294308785557 0.020891118887784703578303 -0.026025542773461529666434 -0.078974163992876642015339 -0.023827742307100861079983 -0.018423443393717778282515
304.000000 0.022426633448489250582947 0.022067846478858777620191 -0.027583610900498455043017 -0.083660932231283374749253 -0.025266954351195164418797 -0.019541858358574918513861
306.000000 0.023680811412112409697350 0.023278255186076124427785 -0.029116665030985536960495 -0.088520052155815973082831 -0.026766625977285310455933 -0.020707326073145026351652
308.000000 0.024963244354565629345988 0.024514538983436390262582 -0.030574985187061660268926 -0.093485431576749045134989 -0.028295478561743171719289 -0.021893970337090829653137
310.000000 0.026264641341255157841461 0.025777015913477089453787 -0.031919573114602063645950 -0.098468270900584645155540 -0.029814979747827190931231 -0.023070453875750553118795
312.000000 0.027573594409485310124941 0.027067071143697159912866 -0.033124904813804201264560 -0.103357663384536072048725 -0.031285484182101128136644 -0.024205926052727467362446
314.000000 0.028875337431031589813246 0.028380120243211463121336 -0.034175467938981615723115 -0.108023363616820439192523 -0.032671323014164144193927 -0.025275041551540231715700
316.000000 0.030158707159581635975920 0.029714863376530144950527 -0.035053142311700299926791 -0.112318773943164765261038 -0.033943662686460533695065 -0.026260442577930344365544
318.000000 0.031425169488350786217712 0.031091940971318385300570 -0.035718363873135317021479 -0.116081087717286729477095 -0.035080911266140928084223 -0.027152360008388626982923
320.000000 0.032685937190731734203197 0.032553839803888560966438 -0.036098799788663912813114 -0.119130207430997919759719 -0.036066433915619325323298 -0.027945511034276036138602
322.000000 0.033949309472822646049917 0.034144767573773632252099 -0.036092497509606018268880 -0.121273278011440652224273 -0.036884511567953075228399 -0.028634418704544657013900
324.000000 0.035210028917669979053873 0.035887618030564005788818 -0.035590108944342814523143 -0.122325342897429661936926 -0.037517587965618368062160 -0.029209563761841583762191
326.000000 0.036444331451059006066195 0.037763888516204296985634 -0.034515584090357279145600 -0.122141308543818979948092 -0.037946497982849637653491 -0.029656017084830298830012
328.000000 0.037609282237898597478498 0.039701292066518345524884 -0.032859774252648972503454 -0.120633665504583778571579 -0.038152361148800266466008 -0.029954270288336710265087
330.000000 0.038645641594134201579624 0.041574853926007779292284 -0.030681910488453045110502 -0.117761157661363316528913 -0.038118253648170639935611 -0.030082214283421681438879
332.000000 0.039484057225868687823755 0.043218810704063803651565 -0.028084953654370321124434 -0.113499396166924684803412 -0.037830221360303159516825 -0.030017963809387631507475
334.000000 0.040054683688316473910707 0.044451265940672113341492 -0.025179718243567291574569 -0.107816137224221592072482 -0.037277992574619299437355 -0.029743479270719457019378
336.000000 0.040297733102732401222479 0.045116005486493332421460 -0.022052313354393907052220 -0.100676238332616213577708 -0.036455599586364989539433 -0.029247985087550762428599
338.000000 0.040168659538795600805194 0.045119057080328511810663 -0.018764004173163373323518 -0.092093652532640762897742 -0.035361746928635293119036 -0.028529428808114237758886
340.000000 0.039635329712605346652587 0.044426877200538360257465 -0.015400564394309266061378 -0.082217958632810575481109 -0.034000299606363020010757 -0.027593610722416634511989
342.000000 0.038674807265998187300049 0.043038763874129921938039 -0.012122162690804124535182 -0.071389517301520377667856 -0.032381727414401408060574 -0.026452650215426701946209
344.000000 0.037277078027028530404774 0.040971797078016979065662 -0.009143223312984057743469 -0.060090600160246171457246 -0.030526795357695493682293 -0.025125190951940604838777
346.000000 0.035452317065012367569565 0.038268250225071367975893 -0.006650377842021605936940 -0.048824544797582462851704 -0.028471014472638802444981 -0.023637649435044733037259
348.000000 0.033233914042364760821346 0.035008163599704669732837 -0.004735004720424120655542 -0.038031698505736587223591 -0.026264197037590374800287 -0.022022686609497861554008
350.000000 0.030677228570423622361352 0.031313375286616221271352 -0.003384422318934518329747 -0.028077043262161066605742 -0.023962847155991839898093 -0.020314331503282018198675
352.000000 0.027859997960028359820228 0.027342889406431137439002 -0.002517189727870957054873 -0.019267914659515269354406 -0.021619475877454059908889 -0.018543016636769046184829
354.000000 0.024879498240308120515785 0.023275908679281382546167 -0.002031505715125788303493 -0.011864388347541124368867 -0.019273874806500751466487 -0.016732778944132872811501
356.000000 0.021838331296005129150695 0.019282772927822499492434 -0.001839327044162778227940 -0.006056464736381027454126 -0.016951901951284733399694 -0.014902670290685687132237
358.000000 0.018824730778814663390008 0.015500166561144619603585 -0.001870102657069535939324 -0.001898089572319182870286 -0.014675280281486138833635 -0.013073793436892661157245
360.000000 0.015904259338137258228407 0.012028261105232963129597 -0.002051747181982922687421 0.000747347843385717152190 -0.012475179024864002652606 -0.011277158260088295319012
362.000000 0.013129240345929217917420 0.008944480093326124051090 -0.002294949529707233926157 0.002183193365438441599369 -0.010394287988670574546246 -0.009552942962018116240808
364.000000 0.010553497317109760550435 0.006311351140018375133200 -0.002503613382829002458746 0.002779994863762352049624 -0.008475675934868334010508 -0.007941036133197722224342
366.000000 0.008236377094362571163466 0.004168994540731056804017 -0.002604853137208707793138 0.002867647787055675051571 -0.006750885966116681319305 -0.006472024914019189160974
368.000000 0.006234580939601446110399 0.002525842596327570153958 -0.002566622436501767197392 0.002683168618125497065924 -0.005236846298842547792196 -0.005165006161824100758273
370.000000 0.004587658029636068439394 0.001356672512395862241139 -0.002392678028210555932209 0.002374529207937231024828 -0.003941513763108651577372 -0.004031320495945126675119
372.000000 0.003302225763177136282772 0.000603759810960253747239 -0.002109321937866308425275 0.002026242630901565512647 -0.002870333556434117184414 -0.003078622998158201534702
374.000000 0.002347568232385645412702 0.000183660950542633387558 -0.001753660192894007175193 0.001684520185104420838054 -0.002025907913770958607147 -0.002310613079793381093724
376.000000 0.001668318350421479391577 0.000003058980884483585473 -0.001364368610614874986753 0.001375153463702074837019 -0.001399862709820301259409 -0.001721612541902353687995
378.000000 0.001201260835276860266391 -0.000026433371934090624993 -0.000978840586577082831521 0.001111735327331867971210 -0.000964306884535256082086 -0.001290632507286001073518
380.000000 0.000886343977083927704076 0.000019937163494341938113 -0.000633800647491632803028 0.000895516589684712473358 -0.000675220179089172883695 -0.000983898704520102607499
382.000000 0.000673641668132132190490 0.000087104482999277182162 -0.000358117816851325702476 0.000717435912748649764863 -0.000487439603200368878552 -0.000766012999552795510738
384.000000 0.000527084894812204730538 0.000144682789056474708604 -0.000162009165629574549512 0.000566073622343078383667 -0.000366366199120973692459 -0.000608963316726653385198
386.000000 0.000423091118222933672364 0.000182324554432475852877 -0.000037668965286807767207 0.000433584170895129957651 -0.000288892503274244827078 -0.000493283576805173679114
388.000000 0.000346481234280102742135 0.000200059419482596651928 0.000030933806255145366638 0.000316360738886695873687 -0.000239293369340175130161 -0.000405413617931769801935
390.000000 0.000287321128804858213785 0.000201396186048560896665 0.000060087658142959099483 0.000213272494950889816932 -0.000205988079001197802636 -0.000335542062893958575875
392.000000 0.000239267179599921372317 0.000190586886092479414374 0.000063529305916235981615 0.000124840437370007592555 -0.000180454506186236620507 -0.000276865910784548311524
394.000000 0.000199010603207059152053 0.000172279910430833379034 0.000052400185351250230564 0.000052024385900047819670 -0.000157707718977101798985 -0.000225845462558449947606
396.000000 0.000165448079361701135687 0.000151078076483042439545 0.000035179507712748805991 -0.000004877868180687792982 -0.000136486420937972880796 -0.000181980969778387005045
398.000000 0.000138390326538622918107 0.000130650750070077667584 0.000017639109788228470786 -0.000046762610806285830176 -0.000117706331735207040626 -0.000146075571395415154587
400.000000 0.000117366702381633013002 0.000112978697874468840545 0.000002623095335720845415 -0.000075883600255658171987 -0.000102238904723167835210 -0.000118231967775795116936
402.000000 0.000101349207314578652591 0.000098548150166503491816 -0.000009008684557872082701 -0.000094931915860878350556 -0.000090008058819311166383 -0.000097355750220419620070
404.000000 0.000089179853419916218886 0.000087058851861328186974 -0.000017457867838034886508 -0.000106563629093202609684 -0.000080408272343039186177 -0.000081874055698316221307
406.000000 0.000079847813950858058537 0.000077996287985701505635 -0.000023228681629342181199 -0.000112881840537729918536 -0.000072779991205138830010 -0.000070357855440492046879
408.000000 0.000072601976206227621384 0.000070846502199999229635 -0.000026880269144950348772 -0.000115402601562040636198 -0.000066632205696362580027 -0.000061739703179379456436
410.000000 0.000066890028152551746655 0.000065190083560456206849 -0.000028911002004515702363 -0.000115331210893042095003 -0.000061618788209353910911 -0.000055244090683956547901
412.000000 0.000062312019456307573065 0.000060678168621318125196 -0.000029760482944223711448 -0.000113503650465441452292 -0.000057472296452673974504 -0.000050288923492233520893
414.000000 0.000058531784083727577610 0.000056984191921761694869 -0.000029761316744852756927 -0.000110550765628513201827 -0.000053996284212935761278 -0.000046441607488833459481
416.000000 0.000055333060890606007066 0.000053881746128852476760 -0.000029218592724181128195 -0.000106891065739794281450 -0.000051019656901174102390 -0.000043368135825745442061
418.000000 0.000052536180676108087354 0.000051166876632315266089 -0.000028370248635309512826 -0.000102870911973420618517 -0.000048397120100751735801 -0.000040818235180605622709
420.000000 0.000050012636287936044653 0.000048727297141350691821 -0.000027288464612832904094 -0.000098585052388943788257 -0.000046021794544250039984 -0.000038617805943294733451
422.000000 0.000047681791070489326460 0.000046467641606146542585 -0.000026109031959777154229 -0.000094181746461168903192 -0.000043822749985375183176 -0.000036655377904356164717
424.000000 0.000045500154010777927769 0.000044338083152385254077 -0.000024915735490156545179 -0.000089776612518389364305 -0.000041766890998172269162 -0.000034868567421275302291
426.000000 0.000043434730649988690645 0.000042309245138982793473 -0.000023718027424454792446 -0.000085432953158356758215 -0.000039825279103569844591 -0.000033210967813738285126
428.000000 0.000041451320073556092527 0.000040337015174321919520 -0.000022603667931405382267 -0.000081230571040575346581 -0.000037972434603514954813 -0.000031648750113889025342
430.000000 0.000039535147802840387842 0.000038422631897494669299 -0.000021525703665764123310 -0.000077144964346177854943 -0.000036202209376471025421 -0.000030168567246332360761
432.000000 0.000037692629580749137863 0.000036578657163122274142 -0.000020489512235939472720 -0.000073203799392961910793 -0.000034503146278738428497 -0.000028755250025928466779
434.000000 0.000035934514601666968500 0.000034820284831108672509 -0.000019506057596038065894 -0.000069434310490766154014 -0.000032884149468003538318 -0.000027411227253877366779
436.000000 0.000034233720077833720570 0.000033105836992543221959 -0.000018606186874069591670 -0.000065929401409965906924 -0.000031335617170918087697 -0.000026125016098798283990
438.000000 0.000032605580115111632141 0.000031490483268075037965 -0.000017701935788515811397 -0.000062585585960927658626 -0.000029850281247187208412 -0.000024891796114067484322
440.000000 0.000031036028739070502778 0.000029914344407415996386 -0.000016880627037639382325 -0.000059521937780399384026 -0.000028423809707231167395 -0.000023707068769108146722
442.000000 0.000029527517131448394872 0.000028416038348397998023 -0.000016095822285546654274 -0.000056639098206442162219 -0.000027048710388695431723 -0.000022564804199476098609
444.000000 0.000028087746859263277606 0.000027002944863384226062 -0.000015357663961597086620 -0.000053933897040552536385 -0.000025739328687497706156 -0.000021477403426371893114
446.000000 0.000026694473644902713157 0.000025641727793548104841 -0.000014662202559254484756 -0.000051386863239035021666 -0.000024485248466970803996 -0.000020434686730738699261
448.000000 0.000025373946578702166217 0.000024365618285433018767 -0.000013988397648708666431 -0.000048939787014382930830 -0.000023285338245186028966 -0.000019436743108844147811
450.000000 0.000024121602154112486380 0.000023182883985155162276 -0.000013286842986209824744 -0.000046581517840763962538 -0.000022146664548096165988 -0.000018489389245347653037
452.000000 0.000022952516493780656537 0.000022057161312553368076 -0.000012653553461217800037 -0.000044374690811416539807 -0.000021062530619368186312 -0.000017587542418498659401
454.000000 0.000021839239314971616398 0.000020996580780488365329 -0.000012027421231118105055 -0.000042200888921534324692 -0.000020027873450577009180 -0.000016726182733509231112
456.000000 0.000020771373029239433532 0.000019979802499242642301 -0.000011431392784648425340 -0.000040147020329918894238 -0.000019048960501025176189 -0.000015910237343582733452
458.000000 0.000019767079225522747593 0.000019038024493938679688 -0.000010827404152982147945 -0.000038194001185173914606 -0.000018124297858650489023 -0.000015138176291558238585
460.000000 0.000018841710709062501868 0.000018164192072570743209 -0.000010282640106482585196 -0.000036294254283747197636 -0.000017251324477652728740 -0.000014408840985439937824
462.000000 0.000017930964218530261623 0.000017305835720262400168 -0.000009761682023900660057 -0.000034535143029427867721 -0.000016415212261976175280 -0.000013712578496581313348
464.000000 0.000017071556649573487818 0.000016484950094761013521 -0.000009293418063777083928 -0.000032843572798436195600 -0.000015618378514161652878 -0.000013048194010764552206
466.000000 0.000016234382701973356668 0.000015662289997499274235 -0.000008867615609816702178 -0.000031218740403842997594 -0.000014870469445622999706 -0.000012423153865022175063
468.000000 0.000015452284105302628456 0.000014913413572900206195 -0.000008390808402780920304 -0.000029644347970370439935 -0.000014147949391599822796 -0.000011821291869051401188
470.000000 0.000014703086568809896770 0.000014160733209323796429 -0.000008007572342820352298 -0.000028206613475133876235 -0.000013462659453295805991 -0.000011248249710371220926
472.000000 0.000013977154794807861808 0.000013469184030287009092 -0.000007596039317884501444 -0.000026783324942589187566 -0.000012801198223542380978 -0.000010695948040342896873
474.000000 0.000013303191078420743278 0.000012802708303804570753 -0.000007235071628773963204 -0.000025447761881271439128 -0.000012182010405606143500 -0.000010180450591737130636
476.000000 0.000012661420439293731273 0.000012207666367893578780 -0.000006856981325984324782 -0.000024170581839828749062 -0.000011587938393682982447 -0.000009682122260815793398
478.000000 0.000012024105598082836409 0.000011585393427142897898 -0.000006545987946107340026 -0.000022973168902120010774 -0.000011022897138366702109 -0.000009209053504521586323
480.000000 0.000011426643330975638226 0.000011001223783498195342 -0.000006272694467190460056 -0.000021867826870140695918 -0.000010475890351046186359 -0.000008754078422821667317
482.000000 0.000010884637368915922102 0.000010487500391128082609 -0.000005948159740735472921 -0.000020843171923617124152 -0.000009975519191323045114 -0.000008334974224436488273
484.000000 0.000010345607877001976321 0.000009949030534859272537 -0.000005705647372915985192 -0.000019847345217330458604 -0.000009483196942314711095 -0.000007923783819309286578
486.000000 0.000009862700400784712711 0.000009490862678679863775 -0.000005374113951978520655 -0.000018860430028179226200 -0.000009027263234975150269 -0.000007542260710059303075
488.000000 0.000009368829471739607839 0.000009016569966267580985 -0.000005085024643457138754 -0.000017869739395005869150 -0.000008582146612876270469 -0.000007171220138767450859
490.000000 0.000008913006953778802922 0.000008561712704321454128 -0.000004897838594984252243 -0.000017063009116020969546 -0.000008167317275389239395 -0.000006824172400108502874
492.000000 0.000008477405331620015727 0.000008148459399030092321 -0.000004636745219655843880 -0.000016286427805509143458 -0.000007779897539534832176 -0.000006496468009322827836
494.000000 0.000008055290218505155699 0.000007731127067298637994 -0.000004407904634497699883 -0.000015514760272765317113 -0.000007408632297931975365 -0.000006184616126028956130
496.000000 0.000007679082869940807431 0.000007383016055442283953 -0.000004173981368453183317 -0.000014809335711445925022 -0.000007060919217794456089 -0.000005891849468936838289
498.000000 0.000007290285342847690965 0.000007013469549430003297 -0.000003987548910411548016 -0.000014071295238122159246 -0.000006720081910096279760 -0.000005605572293835461982
500.000000 0.000006933735082472672538 0.000006646976802272855120 -0.000003873323444615675808 -0.000013431903807893973008 -0.000006386303351281586082 -0.000005327141107087528501
502.000000 0.000006605319311017749951 0.000006334128967350640928 -0.000003716684145425539089 -0.000012832179641643593301 -0.000006085850212083854421 -0.000005075136611152965518
504.000000 0.000006291384016773073480 0.000006037189745235174408 -0.000003498810728067173757 -0.000012205084027838776934 -0.000005804461502052502040 -0.000004838021705832206857
506.000000 0.000005995861060838846629 0.000005761834715243496008 -0.000003307751720571918871 -0.000011631801900656985722 -0.000005536812355423299745 -0.000004615239975927460567
508.000000 0.000005715804471990972004 0.000005483432280287346695 -0.000003207128790308788618 -0.000011101096484567213768 -0.000005273444937372903760 -0.000004396314131880199648
510.000000 0.000005434619001820609991 0.000005207432734044652032 -0.000003058565246378923323 -0.000010636325535778984975 -0.000005026805721154116574 -0.000004191525009456361023
512.000000 0.000005170146289381728469 0.000004968703258190224253 -0.000002902363069219394364 -0.000010090940522210483933 -0.000004785494990579893157 -0.000003988886023694832832
514.000000 0.000004931239483545089075 0.000004748500718619985554 -0.000002716158510177182338 -0.000009607492647134429243 -0.000004561493505256498432 -0.000003800971008792982483
516.000000 0.000004710038231899848089 0.000004539024113691237106 -0.000002548553070100101778 -0.000009111205409608013524 -0.000004352430883041005227 -0.000003625889405287786098
518.000000 0.000004473135280430107735 0.000004302350092973914563 -0.000002464843689849288254 -0.000008723244541602683715 -0.000004150632964919571422 -0.000003455200485753184167
520.000000 0.000004246852861391001364 0.000004071780589723263138 -0.000002348903447556039840 -0.000008281429585598499172 -0.000003951565008883876032 -0.000003289001227759329125
522.000000 0.000004066552554952856798 0.000003894508088164946382 -0.000002280310601147041768 -0.000007937509561911897121 -0.000003768064385192366534 -0.000003135388025711569247
523.980000 0.000003889522381553787142 0.000003725935206722491361 -0.000002266107446052424041 -0.000007663927089555580682 -0.000003595995802834124355 -0.000002991094182303843326
