0.000000 -0.000000000000000000000000 -0.000000000000000000000000 -0.000000000000000000000000 -0.000000000000000000000000 -0.000000000000000000000000 -0.000000000000000000000000
2.000000 0.000413285474466900933175 -0.000546318422734536567574 -0.000297668055058396925291 -0.003227554642457439778441 0.000363424430588532598220 0.000314978019574202114383
4.000000 0.000610942608384258505072 -0.000208000753962269178217 0.001183046476343347676308 -0.002039530005893125299415 0.000405099561387707010531 0.000566457147122079738080
6.000000 0.000163975533127411101774 -0.000477758600999655751694 0.002147356822682412215431 -0.000573849570882876535566 0.000325306897545748314408 0.000710292829973335889879
8.000000 -0.000480167046541047693765 -0.000729427179471348096154 0.003459374034186151174869 0.001271985269189447424754 0.000483702125215341267525 0.000922615987900853680090
10.000000 -0.001855204958513836498851 -0.001616936975791161655580 0.004861181120053976317807 0.003506666861093420389101 0.000908794871313179904518 0.001333762791604954384833
12.000000 -0.002958692923819159371207 -0.001954711701058495145616 0.007024563091958755875477 0.006209303294775571357977 0.001651337290536795043491 0.001901364527563737492899
14.000000 -0.004429495368164984049619 -0.002821136556884844357601 0.009686191877791541088305 0.010445216632840719286901 0.003189846829548660320230 0.002782534273771967905237
16.000000 -0.005898634534838334900209 -0.004486449406826817885852 0.011573350119350197737211 0.015545263692097334440323 0.005268160525322687290362 0.004070237250467702988521
18.000000 -0.006155851861124969452710 -0.004703625549484602257067 0.015142049337964902031017 0.022851192927431762669244 0.008198732885889939772661 0.005712583521221547069868
20.000000 -0.007122106675251141036376 -0.006154794596359002001318 0.018229286528629751878983 0.032389028804727160171240 0.011943571332000040355337 0.007643055222662491036967
22.000000 -0.010099026562300628465096 -0.009466357278247341730526 0.020892414832818034797768 0.043339502642684123168149 0.016590835385292435066873 0.009929405465310757461506
24.000000 -0.013722371274746540323330 -0.014091723913802433471032 0.022698404917282904297293 0.056236213426061616715845 0.022129715081805112486535 0.012508233709644345568734
26.000000 -0.016832121674256003696080 -0.017445132678495064298962 0.024441544647377997506732 0.068370558661007593825865 0.027432810506447434517607 0.015378236870353534024303
28.000000 -0.020764801029117103958743 -0.021450706076931544408204 0.026356331208037011432088 0.082980410401939014297668 0.033477486160115824120886 0.017966362553109016531039
30.000000 -0.020848171591674076463807 -0.016562190384168572893087 0.034469531666755232057753 0.101798986480792261200001 0.040718437756151984463493 0.020359272285359577420172
32.000000 -0.022192327900092859160885 -0.015856660774926662621498 0.038571416980054534784372 0.119514951731381963151435 0.047730189758297507374163 0.022899556400708152154033
34.000000 -0.022866902048378674044971 -0.014659060272471812272355 0.042724152848762228518176 0.137070131480417939373595 0.053921172701119561565530 0.025330622646987932533591
36.000000 -0.024403015352519184105740 -0.013619664009699938844733 0.047702023449733274573781 0.157289056127446619237631 0.061502833431395217966831 0.027913012568685384440226
38.000000 -0.027005754305425073991120 -0.014552467192688538222267 0.052571081057083426935073 0.177388972497381586235221 0.068344439026812822679524 0.030260881786806980570104
40.000000 -0.030773524539359976837094 -0.015468410252828435416661 0.061426432290586210904770 0.201004400415000977764279 0.076720349416471669834472 0.032974762919087567680787
42.000000 -0.034971270086166350576917 -0.018201992452597459681840 0.069563861746737509772487 0.222278408890582895862664 0.084620405459037678630452 0.035794261787121292583969
44.000000 -0.038871505582511282905767 -0.021364599153486877464170 0.075815984521229548565024 0.240169741045417023395103 0.091103719948298064745806 0.038691462133518969568335
46.000000 -0.043865423819442840580596 -0.027157745217628596196002 0.078989491398830796731190 0.254505694412011429506038 0.096935440296834554652072 0.041870376577046404531490
48.000000 -0.049425300937260913114457 -0.034073821749288732418925 0.082319137960266436371271 0.269433571016314488133503 0.102674820375211625633760 0.045155104844162671784424
50.000000 -0.055273188347870275127782 -0.042277983910217808993792 0.083139335972073652447634 0.280438324523694493262127 0.106532221295480511447096 0.048468275091175884450312
52.000000 -0.061817349239358151957724 -0.054527400507989570721534 0.079025732162736672670178 0.287920166412784728215968 0.109183342098361516048222 0.051466400309485675623744
54.000000 -0.069186881265603961121968 -0.069058040862735495246660 0.073608744870597653253697 0.293270573124031153078306 0.111824678555719356221054 0.054342648042990514267725
56.000000 -0.076428459107000717986935 -0.080862794094335374572857 0.072924653879169368253521 0.302198948082609719634206 0.114500286107738338814421 0.056369118931531757288322
58.000000 -0.082601967678989335341910 -0.088608568816859648031858 0.064854437935244688140379 0.286128712647282734682364 0.115350599574823367565735 0.057841652494180828547599
60.000000 -0.086970907342261413730533 -0.093508534904828313760738 0.047707742831422934870478 0.249762245387318670974963 0.113905438841788608783645 0.058658340659028383734519
62.000000 -0.090790376672382142042572 -0.097466397873738661039589 0.027322829703173727444732 0.211287105511694439652359 0.111196090018679846767036 0.058532759484650295767061
64.000000 -0.092622818654458982656763 -0.101280721158076597587794 0.006261772274733620052833 0.173953966699284340302611 0.105150316335815563473233 0.057296575445177432006627
66.000000 -0.092352096237874312101290 -0.099135634071325570704225 -0.002426158206342726199323 0.144445773815033262632568 0.097652356273761148353074 0.055768708846513026511360
68.000000 -0.090461615867666086976406 -0.094341079202973993078629 -0.006858253159395842797619 0.117209218500895329118094 0.088832347316654125535251 0.053937411749005029215631
70.000000 -0.087883538565911870077407 -0.088143218441394791118348 -0.009174587747607706317288 0.091762458507505917371105 0.076712088279238102583868 0.051605195754341130764953
72.000000 -0.084484288047922698194903 -0.080777226563684675908483 -0.010905563348921600008712 0.062914984551691074954327 0.064619288349285292083479 0.049086635685453093580488
74.000000 -0.079412393277594833795874 -0.069735173151378865297190 -0.009509427986430065218859 0.039851181838156078673929 0.054841051072376849340184 0.046758904595489460265245
76.000000 -0.067388423268271852029088 -0.052195668044346520131338 -0.003265699471986587779787 0.019073902090399545705690 0.044342916948098845542070 0.043473432701844054448781
78.000000 -0.056586788749074697080221 -0.039580321807534610267787 -0.001930539959862713397104 -0.002588838119411094717409 0.035492483806283621483590 0.039808068135347450533512
80.000000 -0.049101369408030906549278 -0.031185271837546164885868 -0.002302565974270079449809 -0.016318348559025593058625 0.024843941745442021939994 0.033572241118887555244577
82.000000 -0.040399286273024921645192 -0.021390471458470533550056 0.000608504971364416148705 -0.020307223986044321828448 0.013316994529795284432638 0.024694892245563569016520
84.000000 -0.031474269872442721396322 -0.011215794445476469365364 0.005829861458920213880541 -0.017930491618386022734111 0.008138568744472773897058 0.019441987893633303624563
86.000000 -0.023874193782275444225549 -0.004646928407806005800751 0.008241705730782811212265 -0.013238214211725838134748 0.004948787637400931145593 0.014986698930811802321639
88.000000 -0.016511764997329300697082 0.000773268996026984438245 0.010915038060525600327466 -0.008446545647455852567909 0.003179726443867881592598 0.011527224001354946514297
90.000000 -0.009604091891497223629215 0.005023311320613344822805 0.011897806888389077933921 -0.005830429271160681402308 0.001768606949604482978661 0.008652481846085066652385
92.000000 -0.003070797850977799621497 0.007692138105777708047273 0.011833195842096758121365 -0.004614896924628567563553 -0.000453388695883634939513 0.005415451095369262779489
94.000000 -0.001055869515384642593619 0.006148822642302318938756 0.008944051094346944924540 -0.005792528257530512453277 -0.003549605998888383413814 0.002429665825981707199394
96.000000 -0.000682086728978244997805 0.004050414863188959990747 0.005814877746203516925561 -0.007063140245115599562264 -0.005530927991429628216846 0.000245106833524827373485
98.000000 -0.000095946858942615119415 0.003361074107185578474510 0.004415520484659977117070 -0.006514854720113956790262 -0.005668791905994123754564 -0.000809732722572936778997
100.000000 0.000136333994274410563296 0.002455473186674718769074 0.002711356041445551253583 -0.006108207483797358124111 -0.004710972103672306753042 -0.000660226129374482891866
102.000000 -0.000053946016158199678085 0.001095537712146021783535 0.000470172633686623015360 -0.006119982519447876578855 -0.003491182788881910543238 -0.000073528716989095527635
104.000000 -0.000004832182458637147267 -0.000131569314344238817065 -0.002258787013939661005024 -0.007020260689255063135672 -0.003486675051070154025823 -0.000236913870766917284381
106.000000 0.000187627898229348157640 -0.000068094299132210228719 -0.002737575394983017551542 -0.007207891747552796699039 -0.003299537109299754533004 -0.000270909145675988203856
108.000000 0.000476901493890312497444 0.000326312293994036515220 -0.002440308573072907244450 -0.007092704170994493760583 -0.003166968179833190479705 -0.000347479270797847075540
110.000000 0.000774227804629815845663 0.000686528048647421971183 -0.002193720024294128472658 -0.006977686456493039854343 -0.003104204337115243871048 -0.000546356840330751067879
112.000000 0.001010212198861645382236 0.000953929703987947859301 -0.002013060621729977940630 -0.006843824715475159241318 -0.002935167427711904766796 -0.000584016755372650307569
114.000000 0.001212952693093331639485 0.001177021967247350890326 -0.001861011505926104918351 -0.006698306647984822274899 -0.002777557088674465716333 -0.000638483775899722637466
116.000000 0.001469979060683862612940 0.001433604595896775064576 -0.001689327317020378497678 -0.006546525899900861381053 -0.002725593296798100098610 -0.000852950691157862385047
118.000000 0.001713500935526794232561 0.001659138849722622231775 -0.001572769114076137328406 -0.006470423678485647325798 -0.002777201848975858772955 -0.001115222949497526091361
120.000000 0.001922937628231998971606 0.001821041723617104193464 -0.001522566780536675160734 -0.006459524853992008527892 -0.002877089186110039480820 -0.001368277540743625866199
122.000000 0.002069176095814237448245 0.001921325865491684383238 -0.001519345316342049848068 -0.006480218583494396292211 -0.002958170996796306503884 -0.001534252732128260632294
124.000000 0.002151451415333956434378 0.001961302980898981234564 -0.001561609264563318562324 -0.006532938725088670815777 -0.003010256108813307105582 -0.001593836194605763312282
126.000000 0.002218473036684646092220 0.001991696320925572839811 -0.001602883651523935104946 -0.006583252494619024064448 -0.003052954484567842099313 -0.001639665828647097773479
128.000000 0.002275954696563642441071 0.002018119171330494572569 -0.001639191490118137826959 -0.006629438140642829498106 -0.003088733043257442523188 -0.001679912678624222556814
130.000000 0.002325551037432901750612 0.002041602418851435306324 -0.001671226821658442071236 -0.006673458264936890302343 -0.003119625992670341761703 -0.001715374581986540969414
132.000000 0.002368752217425530281342 0.002062950146818904283152 -0.001699702680443297394056 -0.006716746094455568368009 -0.003147267142823042054833 -0.001746940907113929755679
134.000000 0.002406810942077542390949 0.002082741213015220412691 -0.001725335822611366110371 -0.006760365786269162576005 -0.003172886970275701559729 -0.001775346868209181760284
136.000000 0.002440767142723466662235 0.002101394593559803222749 -0.001748792731184162143471 -0.006805075781947675719885 -0.003197388418688403184664 -0.001801191353890430144752
138.000000 0.002471483089151295300251 0.002119220483112456074326 -0.001770671008657533811517 -0.006851428513208567341874 -0.003221425056075379132065 -0.001824973527120029399493
140.000000 0.002499679542678574263592 0.002136463500400436268944 -0.001791470538525322944365 -0.006899798229709776763163 -0.003245471883081420261252 -0.001847120823959417026949
142.000000 0.002525967307305421183372 0.002153333847778601557038 -0.001811597935354540209185 -0.006950443523302266696229 -0.003269866765420332763159 -0.001868002922581657671355
144.000000 0.002550843945197492877719 0.002169991960341381958405 -0.001831390850630140558486 -0.007003537861472674229402 -0.003294851575054100374651 -0.001887938274874648028959
146.000000 0.002574734091153970619997 0.002186591159335105321454 -0.001851102733253990814677 -0.007059190560205435768792 -0.003320601283919572595943 -0.001907204562189248079826
148.000000 0.002597989277840641753753 0.002203258983563325008881 -0.001870955968095430093159 -0.007117510768565272691322 -0.003347247028416689383634 -0.001926040757118753065508
150.000000 0.002620903890364440110006 0.002220107931743814291131 -0.001891112778984769399182 -0.007178572120078880250404 -0.003374892203440561701949 -0.001944653853881225021721
152.000000 0.002643720886466709510398 0.002237234264496321817228 -0.001911719795261455738522 -0.007242448739426245347961 -0.003403616102751773602603 -0.001963221097648398284774
154.000000 0.002666647914016512938007 0.002254727443860898763311 -0.001932888808059414964199 -0.007309223360753905156251 -0.003433488717917077947400 -0.001981894896363743316381
156.000000 0.002689861089165997490302 0.002272669920166860407090 -0.001954712588491589169565 -0.007378974821000558285966 -0.003464576694883051734275 -0.002000809607593265725123
158.000000 0.002713506784195632553364 0.002291128504108116709787 -0.001977283445368177485640 -0.007451811081883048110130 -0.003496941462754389433332 -0.002020078498763711993130
160.000000 0.002737714928986936021443 0.002310171051176441309183 -0.002000676691856424858212 -0.007527837456997709536521 -0.003530646519914062888418 -0.002039805310994960256543
162.000000 0.002762598434792939289251 0.002329860879517569455244 -0.002024960036855423788776 -0.007607175723808458356334 -0.003565752861615304435128 -0.002060078870813315029403
164.000000 0.002788257258177632633145 0.002350253088869755802720 -0.002050203345869896966874 -0.007689960768158234961922 -0.003602331009840358411883 -0.002080981048557833511942
166.000000 0.002814785888079973479037 0.002371407793610006992796 -0.002076471935576247422606 -0.007776347782472181092983 -0.003640452668366831682351 -0.002102588666593768317731
168.000000 0.002842267251311220849219 0.002393374110657248317324 -0.002103837800480596199187 -0.007866504329576116255618 -0.003680189479461039823993 -0.002124969366834871496719
170.000000 0.002870782508712345360014 0.002416205404403461501350 -0.002132370194434847314457 -0.007960610162495048575115 -0.003721626715804156847189 -0.002148192759672689928357
172.000000 0.002900413078957685998616 0.002439961704199638745094 -0.002162133876279166526391 -0.008058859963716647964449 -0.003764851283620175570466 -0.002172325034332187390640
174.000000 0.002931234176289136510174 0.002464691779129591329978 -0.002193205990793073174167 -0.008161466403677269595973 -0.003809953973486946907090 -0.002197430010184477176122
176.000000 0.002963321647150678195271 0.002490449908879995184752 -0.002225668897857076538455 -0.008268659151026239509386 -0.003857032730500420392161 -0.002223572122951504928534
178.000000 0.002996757859244341543059 0.002517298326443580779033 -0.002259600913534329843374 -0.008380683091079093802178 -0.003906195174572958846160 -0.002250819352168657774133
180.000000 0.003031623052833085345953 0.002545296443884498879123 -0.002295087966585675123138 -0.008497801281405802445446 -0.003957555502709001783723 -0.002279240462686818631532
182.000000 0.003068000882063826040280 0.002574505357338366298009 -0.002332229788399787628189 -0.008620300447922210618223 -0.004011233825559112724235 -0.002308905248683921097169
184.000000 0.003105979362705334981959 0.002604990957779650465054 -0.002371120835980919903940 -0.008748486157264513674026 -0.004067360821625436856364 -0.002339890126277757633616
186.000000 0.003145650115746178102083 0.002636824134873868002299 -0.002411871583502232102569 -0.008882686612029703707161 -0.004126076593571549773476 -0.002372272999861578437336
188.000000 0.003187111629335699289345 0.002670077704552976591290 -0.002454594366992932184118 -0.009023245811281320818975 -0.004187526900581223752995 -0.002406136425513432774287
190.000000 0.003230466017699890578230 0.002704828076961305217268 -0.002499412826274018725042 -0.009170544490442876506275 -0.004251872469514834419757 -0.002441568770925607936850
192.000000 0.003275820378754243280411 0.002741156629789441318695 -0.002546459554234701151004 -0.009324981428084683568458 -0.004319284843272313580143 -0.002478663739394241886937
194.000000 0.003323294644049273622449 0.002779153420517732099582 -0.002595876181556093943020 -0.009486996528183386928612 -0.004389947864725478668402 -0.002517521892331195040859
196.000000 0.003373011526378675000587 0.002818910581542032403601 -0.002647816566273687981931 -0.009657052618729022180899 -0.004464056962373333034555 -0.002558249696773970838920
198.000000 0.003425102930009191800481 0.002860527665697797095046 -0.002702444724824359413573 -0.009835652429489168471766 -0.004541824775724062103477 -0.002600961741783440386161
200.000000 0.003479710513180193660193 0.002904108826082937595131 -0.002759939696963773468619 -0.010023334602673194398959 -0.004623478330497059717030 -0.002645781028378303440657
202.000000 0.003536984758503548126329 0.002949767334902061652335 -0.002820489925717918362064 -0.010220675861058171191020 -0.004709260107728910696445 -0.002692838288926430873049
204.000000 0.003597089892393602085507 0.002997624671638912836891 -0.002884303632631617618498 -0.010428298330839854551888 -0.004799434718580198808158 -0.002742276224078623366592
206.000000 0.003660198240200350418977 0.003047810842557644936401 -0.002951598142435214386370 -0.010646875380442994904473 -0.004894282326154651696637 -0.002794245513253215858207
208.000000 0.003726495549111715106794 0.003100458953064814948686 -0.003022622424717728850663 -0.010877130859999870407528 -0.004994107527752063638293 -0.002848909017337124521124
210.000000 0.003796182171493716304977 0.003155718412108107686492 -0.003097628971714417537436 -0.011119841057566902733922 -0.005099237001426640443491 -0.002906442838006314047239
212.000000 0.003869470599059848022611 0.003213744089311820675142 -0.003176900150543939156667 -0.011375846063390267215443 -0.005210023756344761385051 -0.002967035482217819306050
214.000000 0.003946591717995425428744 0.003274704694120956268572 -0.003260734764888888279760 -0.011646046777398262259129 -0.005326846194343004027572 -0.003030890580253036217795
216.000000 0.004027790827212147581338 0.003338776259849824713799 -0.003349464388687900355535 -0.011931419225807371464754 -0.005450112947041784415558 -0.003098225776839305146970
218.000000 0.004113332359374284596942 0.003406152293589921435657 -0.003443432434410492997551 -0.012233005550221404816869 -0.005580262691783816758617 -0.003169276765737834202635
220.000000 0.004203498201067207978854 0.003477032232321644687062 -0.003543022989991095883511 -0.012551941436867972839986 -0.005717768135988723562924 -0.003244295585950856316421
222.000000 0.004298592685724433350158 0.003551635236248203760651 -0.003648641486165375095313 -0.012889436886156391964819 -0.005863139808173845404782 -0.003323554901196830099752
224.000000 0.004398940829911585255474 0.003630192819341862553451 -0.003760725382788338271717 -0.013246793688447418627097 -0.006016923776937941475973 -0.003407346466142483886602
226.000000 0.004504889023713499682233 0.003712948568584856050279 -0.003879747216467193792616 -0.013625416005426778387477 -0.006179707092744068062939 -0.003495983905864849528022
228.000000 0.004616809334447230690757 0.003800165745236338665086 -0.004006208662560698831323 -0.014026806685941691638098 -0.006352120093369579591214 -0.003589802981451876377067
230.000000 0.004735098529262676304852 0.003892121745774861692885 -0.004140650114704363254914 -0.014452573295134999581402 -0.006534838690076904751947 -0.003689164293961040824027
232.000000 0.004860179597653301042381 0.003989110562674351261048 -0.004283654522618424685676 -0.014904441644407717335041 -0.006728585087629559459421 -0.003794452724910665156882
234.000000 0.004992505446174551678173 0.004091447184379625075235 -0.004435831774803529817253 -0.015384243556797674509773 -0.006934130712619359510063 -0.003906080065919549908909
236.000000 0.005132557702169591833108 0.004199463715792308739216 -0.004597843161889665630770 -0.015893936103586744218452 -0.007152297944989941501370 -0.004024485229349195405946
238.000000 0.005280852428264169728944 0.004313512408071778006513 -0.004770392579437899606420 -0.016435604516039960254492 -0.007383965154252271692603 -0.004150137878669774883778
240.000000 0.005437941691507958488772 0.004433970885740103409778 -0.004954234440100579311972 -0.017011466300014224661830 -0.007630065581033012613033 -0.004283537564486185680868
242.000000 0.005604420508627385583145 0.004561245801954071088513 -0.005150174470682445694580 -0.017623879559254328891482 -0.007891595996460300938002 -0.004425220183823103115017
244.000000 0.005780928251408837606484 0.004695769346145212130850 -0.005359092953102345506522 -0.018275364099154742247855 -0.008169619851335890164945 -0.004575759975965081743920
246.000000 0.005968160432198818532434 0.004838013181733454189104 -0.005581947784370855890346 -0.018968614719043961486244 -0.008465278592257447637381 -0.004735777233746191715313
248.000000 0.006166875689822780975957 0.004988489619070282481139 -0.005819798396002060295040 -0.019706538856733214759576 -0.008779804338034519206602 -0.004905946450511245934822
250.000000 0.006377909195521401335138 0.005147763400645605745554 -0.006073829641119497108059 -0.020492299459749691720178 -0.009114540284864391592179 -0.005087008885916582782982
252.000000 0.006602180380503466436415 0.005316453993308324979528 -0.006345382526291891249481 -0.021329375206050670693569 -0.009470963222773480863492 -0.005279785903313323827679
254.000000 0.006840708407297523864499 0.005495246341750828662776 -0.006635982779391101475663 -0.022221629364189570549071 -0.009850715727243187017081 -0.005485197747227337113085
256.000000 0.007094621770552829616296 0.005684893086154781983999 -0.006947372018464945987726 -0.023173400905845051994669 -0.010255642352811235665233 -0.005704282281379384825226
258.000000 0.007365165674666612413701 0.005886213266682344125158 -0.007281538430608248436970 -0.024189603195862028478524 -0.010687829031665416201768 -0.005938215055400536748764
260.000000 0.007653704687545951484973 0.006100085568230912726195 -0.007640728492812121248889 -0.025275818333103019369679 -0.011149641015330001223016 -0.006188325639236623432193
262.000000 0.007961717750986058161899 0.006327428595418792788008 -0.008027450856043271201767 -0.026438389207987082057949 -0.011643757626201607299765 -0.006456108550258664487143
264.000000 0.008290778416949539514347 0.006569167667053282290424 -0.008444456028992151919166 -0.027684480625067252324012 -0.012173189437988772912402 -0.006743221896086140816629
266.000000 0.008642531340696585698269 0.006826193715632802513915 -0.008894694320720363325816 -0.029022097103453346755852 -0.012741276328106820522890 -0.007051472447468762165534
268.000000 0.009018659540475378044722 0.007099320898657509627816 -0.009381246031280774180794 -0.030460032498594094563238 -0.013351652892937829891773 -0.007382781216185741769709
270.000000 0.009420849911595250911200 0.007389247784149990429248 -0.009907237212776845783346 -0.032007756376739832093747 -0.014008182120016466482015 -0.007739131594398912690480
272.000000 0.009850764791406892845194 0.007696534939854391896286 -0.010475755308652023867211 -0.033675214279398242578356 -0.014714857505621422792408 -0.008122504194714949901646
274.000000 0.010310028579541875154435 0.008021618464711393822753 -0.011089786434571948653405 -0.035472574263390989346423 -0.015475678628129804770275 -0.008534806625507053087776
276.000000 0.010800234087295716364774 0.008364875764524857398863 -0.011752182406249544327492 -0.037409927977596589554476 -0.016294519690263263578256 -0.008977813455281011961739
278.000000 0.011322986240442610428314 0.008726756539756613112457 -0.012465662636115417902238 -0.039496984499989604144865 -0.017175006447144852000930 -0.009453130851660402483860
280.000000 0.011879991179811791660037 0.009108011344268363007615 -0.013232829320525477459491 -0.041742799616726153355550 -0.018120428459185072833648 -0.009962205974289629895058
282.000000 0.012473183327679123952314 0.009509968518215880517452 -0.014056198962760863002686 -0.044155550005684780778825 -0.019133696574685658819970 -0.010506386544362924032048
284.000000 0.013104895966537195850510 0.009934841903552087127860 -0.014938267138795958965947 -0.046742450290907677779018 -0.020217390068308908890327 -0.011087039120006079648273
286.000000 0.013778051001821748841603 0.010386016240981814015565 -0.015881586467695871234262 -0.049509822750723152251506 -0.021373890896631889818602 -0.011705718045926892870168
288.000000 0.014496353338973776148091 0.010868251450661350898663 -0.016888909922988040723801 -0.052463389983872281419064 -0.022605630569167280835563 -0.012364380468386452355256
290.000000 0.015264433188538626545716 0.011387694897004948038632 -0.017963428327272937951031 -0.055608832431013513475371 -0.023915461019134033604505 -0.013065632091198646491659
292.000000 0.016087871015627298182382 0.011951620686379600330684 -0.019109106422290394328156 -0.058952652234528307717554 -0.025307139367005945795874 -0.013812982144289959879346
294.000000 0.016972980158696113900385 0.012567797405442750896531 -0.020330895584690533706151 -0.062503152523860724953941 -0.026785832264096125915342 -0.014611051838488337689670
296.000000 0.017926022686255281557433 0.013243255557130973951163 -0.021634252927341727362753 -0.066270966068274192450893 -0.028358357027507778008735 -0.015465582765408748822100
298.000000 0.018951424745951201550342 0.013982289315521898714900 -0.023022797597545791720153 -0.070267974798156648819081 -0.030032584268180905623380 -0.016382912843273107067477
300.000000 0.020048961745434575737468 0.014784121803900573607904 -0.024492776555000619204128 -0.074502998550809454436639 -0.031815160168094318293708 -0.017368395946733939522177
302.000000 0.021211556859294308785557 0.015641889120760619352746 -0.026025542773461529666434 -0.078974163992876642015339 -0.033707214183652321748408 -0.018423443393717778282515
304.000000 0.022426633448489250582947 0.016545001821191500368524 -0.027583610900498455043017 -0.083660932231283374749253 -0.035699339022972342849727 -0.019541858358574918513861
306.000000 0.023680811412112409697350 0.017483940048528774646730 -0.029116665030985536960495 -0.088520052155815973082831 -0.037768608535560937999875 -0.020707326073145026351652
308.000000 0.024963244354565629345988 0.018454300580323639707769 -0.030574985187061660268926 -0.093485431576749045134989 -0.039879407641626028746540 -0.021893970337090829653137
310.000000 0.026264641341255157841461 0.019457928740399220435275 -0.031919573114602063645950 -0.098468270900584645155540 -0.041986729784424046962865 -0.023070453875750553118795
312.000000 0.027573594409485310124941 0.020498725718113560562150 -0.033124904813804201264560 -0.103357663384536072048725 -0.044039362935797479736699 -0.024205926052727467362446
314.000000 0.028875337431031589813246 0.021578185311301834731212 -0.034175467938981615723115 -0.108023363616820439192523 -0.045982196351729349992343 -0.025275041551540231715700
316.000000 0.030158707159581635975920 0.022705190522973432015741 -0.035053142311700299926791 -0.112318773943164765261038 -0.047758624652302163193784 -0.026260442577930344365544
318.000000 0.031425169488350786217712 0.023914328814194599215348 -0.035718363873135317021479 -0.116081087717286729477095 -0.049312260013306422057333 -0.027152360008388626982923
320.000000 0.032685937190731734203197 0.025265849905785158630023 -0.036098799788663912813114 -0.119130207430997919759719 -0.050586292953539266359364 -0.027945511034276036138602
322.000000 0.033949309472822646049917 0.026825033986316058204347 -0.036092497509606018268880 -0.121273278011440652224273 -0.051522723596032805881695 -0.028634418704544657013900
324.000000 0.035210028917669979053873 0.028635497374814487814287 -0.035590108944342814523143 -0.122325342897429661936926 -0.052067654897642437483718 -0.029209563761841583762191
326.000000 0.036444331451059006066195 0.030691203216529662489709 -0.034515584090357279145600 -0.122141308543818979948092 -0.052181848295372076917964 -0.029656017084830298830012
328.000000 0.037609282237898597478498 0.032916072080608600736173 -0.032859774252648972503454 -0.120633665504583778571579 -0.051847793611674498903685 -0.029954270288336710265087
330.000000 0.038645641594134201579624 0.035162132679585039740644 -0.030681910488453045110502 -0.117761157661363316528913 -0.051068300853693827934254 -0.030082214283421681438879
332.000000 0.039484057225868687823755 0.037223861606458921724716 -0.028084953654370321124434 -0.113499396166924684803412 -0.049858255420308535132978 -0.030017963809387631507475
334.000000 0.040054683688316473910707 0.038871405019369489886039 -0.025179718243567291574569 -0.107816137224221592072482 -0.048233011276148970991606 -0.029743479270719457019378
336.000000 0.040297733102732401222479 0.039908747256063789587976 -0.022052313354393907052220 -0.100676238332616213577708 -0.046199062306766111585254 -0.029247985087550762428599
338.000000 0.040168659538795600805194 0.040225120653198088993552 -0.018764004173163373323518 -0.092093652532640762897742 -0.043753723604077483788632 -0.028529428808114237758886
340.000000 0.039635329712605346652587 0.039791981940285270358260 -0.015400564394309266061378 -0.082217958632810575481109 -0.040895358352841013060974 -0.027593610722416634511989
342.000000 0.038674807265998187300049 0.038622051910973273503025 -0.012122162690804124535182 -0.071389517301520377667856 -0.037638006594311018693233 -0.026452650215426701946209
344.000000 0.037277078027028530404774 0.036744908144679337691496 -0.009143223312984057743469 -0.060090600160246171457246 -0.034026456608329570807658 -0.025125190951940604838777
346.000000 0.035452317065012367569565 0.034214485827196806921879 -0.006650377842021605936940 -0.048824544797582462851704 -0.030151466371013350281638 -0.023637649435044733037259
348.000000 0.033233914042364760821346 0.031124811449301965915470 -0.004735004720424120655542 -0.038031698505736587223591 -0.026155405816819736475320 -0.022022686609497861554008
350.000000 0.030677228570423622361352 0.027613801263557537224447 -0.003384422318934518329747 -0.028077043262161066605742 -0.022215521280492405570284 -0.020314331503282018198675
352.000000 0.027859997960028359820228 0.023853468930284012217147 -0.002517189727870957054873 -0.019267914659515269354406 -0.018507128615769509460964 -0.018543016636769046184829
354.000000 0.024879498240308120515785 0.020027185094066025233817 -0.002031505715125788303493 -0.011864388347541124368867 -0.015162734565144279225146 -0.016732778944132872811501
356.000000 0.021838331296005129150695 0.016300291520709071085848 -0.001839327044162778227940 -0.006056464736381027454126 -0.012247699268850952697418 -0.014902670290685687132237
358.000000 0.018824730778814663390008 0.012800904207428773912136 -0.001870102657069535939324 -0.001898089572319182870286 -0.009764556963470625086665 -0.013073793436892661157245
360.000000 0.015904259338137258228407 0.009622821519726279526630 -0.002051747181982922687421 0.000747347843385717152190 -0.007677711671933586286276 -0.011277158260088295319012
362.000000 0.013129240345929217917420 0.006840359691467435242218 -0.002294949529707233926157 0.002183193365438441599369 -0.005935437809577899515023 -0.009552942962018116240808
364.000000 0.010553497317109760550435 0.004512667890987942000136 -0.002503613382829002458746 0.002779994863762352049624 -0.004483288031527261907616 -0.007941036133197722224342
366.000000 0.008236377094362571163466 0.002672284692482894408183 -0.002604853137208707793138 0.002867647787055675051571 -0.003273590727289321482274 -0.006472024914019189160974
368.000000 0.006234580939601446110399 0.001315764237867531527212 -0.002566622436501767197392 0.002683168618125497065924 -0.002270259368777974469389 -0.005165006161824100758273
370.000000 0.004587658029636068439394 0.000405376632829492519576 -0.002392678028210555932209 0.002374529207937231024828 -0.001450435678210895782542 -0.004031320495945126675119
372.000000 0.003302225763177136282772 -0.000125227473726627125178 -0.002109321937866308425275 0.002026242630901565512647 -0.000803534440536421965852 -0.003078622998158201534702
374.000000 0.002347568232385645412702 -0.000362141892841259165157 -0.001753660192894007175193 0.001684520185104420838054 -0.000325155699565241442048 -0.002310613079793381093724
376.000000 0.001668318350421479391577 -0.000396460397446407066240 -0.001364368610614874986753 0.001375153463702074837019 -0.000005834571417424976737 -0.001721612541902353687995
378.000000 0.001201260835276860266391 -0.000312085535316855436708 -0.000978840586577082831521 0.001111735327331867971210 0.000178522400221983100444 -0.001290632507286001073518
380.000000 0.000886343977083927704076 -0.000179537680864610824831 -0.000633800647491632803028 0.000895516589684712473358 0.000263890426731844057132 -0.000983898704520102607499
382.000000 0.000673641668132132190490 -0.000049470153919358641895 -0.000358117816851325702476 0.000717435912748649764863 0.000285387305835698031585 -0.000766012999552795510738
384.000000 0.000527084894812204730538 0.000052160541947505415644 -0.000162009165629574549512 0.000566073622343078383667 0.000268416215977961860033 -0.000608963316726653385198
386.000000 0.000423091118222933672364 0.000119460054352719575207 -0.000037668965286807767207 0.000433584170895129957651 0.000229061863080397563929 -0.000493283576805173679114
388.000000 0.000346481234280102742135 0.000156486185162989032511 0.000030933806255145366638 0.000316360738886695873687 0.000178116974953429295760 -0.000405413617931769801935
390.000000 0.000287321128804858213785 0.000170008397383833659636 0.000060087658142959099483 0.000213272494950889816932 0.000123933354452278516634 -0.000335542062893958575875
392.000000 0.000239267179599921372317 0.000166731434790310512322 0.000063529305916235981615 0.000124840437370007592555 0.000073320242778213273326 -0.000276865910784548311524
394.000000 0.000199010603207059152053 0.000153044190346561152045 0.000052400185351250230564 0.000052024385900047819670 0.000030978032270639604821 -0.000225845462558449947606
396.000000 0.000165448079361701135687 0.000134699482818129341339 0.000035179507712748805991 -0.000004877868180687792982 -0.000001279616323049090663 -0.000181980969778387005045
398.000000 0.000138390326538622918107 0.000116093815661992037845 0.000017639109788228470786 -0.000046762610806285830176 -0.000024203543645031602212 -0.000146075571395415154587
400.000000 0.000117366702381633013002 0.000099631218769030664034 0.000002623095335720845415 -0.000075883600255658171987 -0.000039691141435949442440 -0.000118231967775795116936
402.000000 0.000101349207314578652591 0.000086067781754123798125 -0.000009008684557872082701 -0.000094931915860878350556 -0.000049610876420203081302 -0.000097355750220419620070
404.000000 0.000089179853419916218886 0.000075251167943691466759 -0.000017457867838034886508 -0.000106563629093202609684 -0.000055511727062236036821 -0.000081874055698316221307
406.000000 0.000079847813950858058537 0.000066762132047973882644 -0.000023228681629342181199 -0.000112881840537729918536 -0.000058550925038891575862 -0.000070357855440492046879
408.000000 0.000072601976206227621384 0.000060130029267005318341 -0.000026880269144950348772 -0.000115402601562040636198 -0.000059590821370389594302 -0.000061739703179379456436
410.000000 0.000066890028152551746655 0.000054962977926584078553 -0.000028911002004515702363 -0.000115331210893042095003 -0.000059288934731320908458 -0.000055244090683956547901
412.000000 0.000062312019456307573065 0.000050917840228364424503 -0.000029760482944223711448 -0.000113503650465441452292 -0.000058125271521850843898 -0.000050288923492233520893
414.000000 0.000058531784083727577610 0.000047676593151259204402 -0.000029761316744852756927 -0.000110550765628513201827 -0.000056458585116645755000 -0.000046441607488833459481
416.000000 0.000055333060890606007066 0.000045004750393011323730 -0.000029218592724181128195 -0.000106891065739794281450 -0.000054520062522097565696 -0.000043368135825745442061
418.000000 0.000052536180676108087354 0.000042692358929627837892 -0.000028370248635309512826 -0.000102870911973420618517 -0.000052457791802141698421 -0.000040818235180605622709
420.000000 0.000050012636287936044653 0.000040640766994712984985 -0.000027288464612832904094 -0.000098585052388943788257 -0.000050329973740896371886 -0.000038617805943294733451
422.000000 0.000047681791070489326460 0.000038749072351259218237 -0.000026109031959777154229 -0.000094181746461168903192 -0.000048172233654666983885 -0.000036655377904356164717
424.000000 0.000045500154010777927769 0.000036963652874163983658 -0.000024915735490156545179 -0.000089776612518389364305 -0.000046031074942683542449 -0.000034868567421275302291
426.000000 0.000043434730649988690645 0.000035266433706537200245 -0.000023718027424454792446 -0.000085432953158356758215 -0.000043924602362087606354 -0.000033210967813738285126
428.000000 0.000041451320073556092527 0.000033606161806647585433 -0.000022603667931405382267 -0.000081230571040575346581 -0.000041858945082591604071 -0.000031648750113889025342
430.000000 0.000039535147802840387842 0.000031994811003109692525 -0.000021525703665764123310 -0.000077144964346177854943 -0.000039846116620646358255 -0.000030168567246332360761
432.000000 0.000037692629580749137863 0.000030444217388872530131 -0.000020489512235939472720 -0.000073203799392961910793 -0.000037900291875603675897 -0.000028755250025928466779
434.000000 0.000035934514601666968500 0.000028966036936473936420 -0.000019506057596038065894 -0.000069434310490766154014 -0.000036049669316864051388 -0.000027411227253877366779
436.000000 0.000034233720077833720570 0.000027518777843782555155 -0.000018606186874069591670 -0.000065929401409965906924 -0.000034302770302651916881 -0.000026125016098798283990
438.000000 0.000032605580115111632141 0.000026165644878279416046 -0.000017701935788515811397 -0.000062585585960927658626 -0.000032638687766583629035 -0.000024891796114067484322
440.000000 0.000031036028739070502778 0.000024840276427311856500 -0.000016880627037639382325 -0.000059521937780399384026 -0.000031062823663752831980 -0.000023707068769108146722
442.000000 0.000029527517131448394872 0.000023583282046560949575 -0.000016095822285546654274 -0.000056639098206442162219 -0.000029557868419520432553 -0.000022564804199476098609
444.000000 0.000028087746859263277606 0.000022401589836789783614 -0.000015357663961597086620 -0.000053933897040552536385 -0.000028129748387673600922 -0.000021477403426371893114
446.000000 0.000026694473644902713157 0.000021264038633671045647 -0.000014662202559254484756 -0.000051386863239035021666 -0.000026767491405819254503 -0.000020434686730738699261
448.000000 0.000025373946578702166217 0.000020202587708152886279 -0.000013988397648708666431 -0.000048939787014382930830 -0.000025465824455481157561 -0.000019436743108844147811
450.000000 0.000024121602154112486380 0.000019232219470369047988 -0.000013286842986209824744 -0.000046581517840763962538 -0.000024225234146323006422 -0.000018489389245347653037
452.000000 0.000022952516493780656537 0.000018296649684643555831 -0.000012653553461217800037 -0.000044374690811416539807 -0.000023041219813733392806 -0.000017587542418498659401
454.000000 0.000021839239314971616398 0.000017417962268007547763 -0.000012027421231118105055 -0.000042200888921534324692 -0.000021910745780946999531 -0.000016726182733509231112
456.000000 0.000020771373029239433532 0.000016578903161810787267 -0.000011431392784648425340 -0.000040147020329918894238 -0.000020840501445054059163 -0.000015910237343582733452
458.000000 0.000019767079225522747593 0.000015811725152489296552 -0.000010827404152982147945 -0.000038194001185173914606 -0.000019832878144872182846 -0.000015138176291558238585
460.000000 0.000018841710709062501868 0.000015089941333725795478 -0.000010282640106482585196 -0.000036294254283747197636 -0.000018877035181429711983 -0.000014408840985439937824
462.000000 0.000017930964218530261623 0.000014385089743832122082 -0.000009761682023900660057 -0.000034535143029427867721 -0.000017951871425524264285 -0.000013712578496581313348
464.000000 0.000017071556649573487818 0.000013703674224311991316 -0.000009293418063777083928 -0.000032843572798436195600 -0.000017071145707677070507 -0.000013048194010764552206
466.000000 0.000016234382701973356668 0.000013014475342152882875 -0.000008867615609816702178 -0.000031218740403842997594 -0.000016249042464052730839 -0.000012423153865022175063
468.000000 0.000015452284105302628456 0.000012397941614771679089 -0.000008390808402780920304 -0.000029644347970370439935 -0.000015449722248547380528 -0.000011821291869051401188
470.000000 0.000014703086568809896770 0.000011756642001468839951 -0.000008007572342820352298 -0.000028206613475133876235 -0.000014703498182549456182 -0.000011248249710371220926
472.000000 0.000013977154794807861808 0.000011185904634690213688 -0.000007596039317884501444 -0.000026783324942589187566 -0.000013971344172055015745 -0.000010695948040342896873
474.000000 0.000013303191078420743278 0.000010625613909418515503 -0.000007235071628773963204 -0.000025447761881271439128 -0.000013279712125636174188 -0.000010180450591737130636
476.000000 0.000012661420439293731273 0.000010141076064870305790 -0.000006856981325984324782 -0.000024170581839828749062 -0.000012637358709599832681 -0.000009682122260815793398
478.000000 0.000012024105598082836409 0.000009619978881116878004 -0.000006545987946107340026 -0.000022973168902120010774 -0.000012023763063592471094 -0.000009209053504521586323
480.000000 0.000011426643330975638226 0.000009128603364634443841 -0.000006272694467190460056 -0.000021867826870140695918 -0.000011418051902443539708 -0.000008754078422821667317
482.000000 0.000010884637368915922102 0.000008708242049194266448 -0.000005948159740735472921 -0.000020843171923617124152 -0.000010873706765635737662 -0.000008334974224436488273
484.000000 0.000010345607877001976321 0.000008247934048860042631 -0.000005705647372915985192 -0.000019847345217330458604 -0.000010343088806969820078 -0.000007923783819309286578
486.000000 0.000009862700400784712711 0.000007872958545301646769 -0.000005374113951978520655 -0.000018860430028179226200 -0.000009846803965348662675 -0.000007542260710059303075
488.000000 0.000009368829471739607839 0.000007480848644479686908 -0.000005085024643457138754 -0.000017869739395005869150 -0.000009358122850600700425 -0.000007171220138767450859
490.000000 0.000008913006953778802922 0.000007097132304750507261 -0.000004897838594984252243 -0.000017063009116020969546 -0.000008919460550682460528 -0.000006824172400108502874
492.000000 0.000008477405331620015727 0.000006757088076073123097 -0.000004636745219655843880 -0.000016286427805509143458 -0.000008517413848456282477 -0.000006496468009322827836
494.000000 0.000008055290218505155699 0.000006404822389060022315 -0.000004407904634497699883 -0.000015514760272765317113 -0.000008128299913964457722 -0.000006184616126028956130
496.000000 0.000007679082869940807431 0.000006122259888281469043 -0.000004173981368453183317 -0.000014809335711445925022 -0.000007760380664368801121 -0.000005891849468936838289
498.000000 0.000007290285342847690965 0.000005816536538776021416 -0.000003987548910411548016 -0.000014071295238122159246 -0.000007390871014405668568 -0.000005605572293835461982
500.000000 0.000006933735082472672538 0.000005491629702244197513 -0.000003873323444615675808 -0.000013431903807893973008 -0.000007030451022248306293 -0.000005327141107087528501
502.000000 0.000006605319311017749951 0.000005234470074639203352 -0.000003716684145425539089 -0.000012832179641643593301 -0.000006708028987444264750 -0.000005075136611152965518
504.000000 0.000006291384016773073480 0.000004993995049632300035 -0.000003498810728067173757 -0.000012205084027838776934 -0.000006410195029961746322 -0.000004838021705832206857
506.000000 0.000005995861060838846629 0.000004768021219934337398 -0.000003307751720571918871 -0.000011631801900656985722 -0.000006113451316587200511 -0.000004615239975927460567
508.000000 0.000005715804471990972004 0.000004531719412167421000 -0.000003207128790308788618 -0.000011101096484567213768 -0.000005813051878755673257 -0.000004396314131880199648
510.000000 0.000005434619001820609991 0.000004307833293927843314 -0.000003058565246378923323 -0.000010636325535778984975 -0.000005536804085142124052 -0.000004191525009456361023
512.000000 0.000005170146289381728469 0.000004117326488522051713 -0.000002902363069219394364 -0.000010090940522210483933 -0.000005277172969214469320 -0.000003988886023694832832
514.000000 0.000004931239483545089075 0.000003942147438446855881 -0.000002716158510177182338 -0.000009607492647134429243 -0.000005038059590889608468 -0.000003800971008792982483
516.000000 0.000004710038231899848089 0.000003770425561685573868 -0.000002548553070100101778 -0.000009111205409608013524 -0.000004814103727435046989 -0.000003625889405287786098
518.000000 0.000004473135280430107735 0.000003564520855478603979 -0.000002464843689849288254 -0.000008723244541602683715 -0.000004606671868419021584 -0.000003455200485753184167
520.000000 0.000004246852861391001364 0.000003370704097485924709 -0.000002348903447556039840 -0.000008281429585598499172 -0.000004387482539894561874 -0.000003289001227759329125
522.000000 0.000004066552554952856798 0.000003217023613460285612 -0.000002280310601147041768 -0.000007937509561911897121 -0.000004190899294207768030 -0.000003135388025711569247
523.980000 0.000003889522381553787142 0.000003074003575483115481 -0.000002266107446052424041 -0.000007663927089555580682 -0.000004009702557450840674 -0.000002991094182303843326
