0.000000 -0.000000000000000000000000 -0.000000000000000000000000 -0.000000000000000000000000 -0.000000000000000000000000 -0.000000000000000000000000 -0.000000000000000000000000
2.000000 0.000413285474466900933175 -0.000546318422734536567574 0.000180510860465706463604 -0.003227554642457439778441 0.000309930621391164905047 0.000314978019574202114383
4.000000 0.000610942608384258505072 -0.000208000753962269178217 0.001391682724252495204770 -0.002039530005893125299415 0.000561330511633408133117 0.000566457147122079738080
6.000000 0.000163975533127411101774 -0.000477758600999655751694 0.001909505864783230411758 -0.000573849570882876535566 0.000706577572212177388612 0.000710292829973335889879
8.000000 -0.000480167046541047693765 -0.000729427179471348096154 0.002752243849766610080121 0.001271985269189447424754 0.000955787376062384617589 0.000922615987900853680090
10.000000 -0.001855204958513836498851 -0.001616936975791161655580 0.003643644307865460257867 0.003506666861093420389101 0.001433822972933792736991 0.001333762791604954384833
12.000000 -0.002958692923819159371207 -0.001954711701058495145616 0.005468793730427018787155 0.006209303294775571357977 0.002127898262275267939059 0.001901364527563737492899
14.000000 -0.004429495368164984049619 -0.002821136556884844357601 0.007420118232223657690760 0.010445216632840719286901 0.003268727147067919825557 0.002782534273771967905237
16.000000 -0.005898634534838334900209 -0.004486449406826817885852 0.008645065417179818856308 0.015545263692097334440323 0.004897510030073298770148 0.004070237250467702988521
18.000000 -0.006155851861124969452710 -0.004703625549484602257067 0.011522922410935356601902 0.022851192927431762669244 0.007050680589698543609956 0.005712583521221547069868
20.000000 -0.007122106675251141036376 -0.006154794596359002001318 0.013403396283111369130525 0.032389028804727160171240 0.009607495946220378710279 0.007643055222662491036967
22.000000 -0.010099026562300628465096 -0.009466357278247341730526 0.013779088784391341909741 0.043339502642684123168149 0.012676611566827039254135 0.009929405465310757461506
24.000000 -0.013722371274746540323330 -0.014091723913802433471032 0.012892523050296558068117 0.056236213426061616715845 0.016177609614506510693488 0.012508233709644345568734
26.000000 -0.016832121674256003696080 -0.017445132678495064298962 0.011918787417859027025213 0.068370558661007593825865 0.019953417386371238156917 0.015378236870353534024303
28.000000 -0.020764801029117103958743 -0.021450706076931544408204 0.009840952804230702899435 0.082980410401939014297668 0.023591409938441103288920 0.017966362553109016531039
30.000000 -0.020848171591674076463807 -0.016562190384168572893087 0.014296433940378504984237 0.101798986480792261200001 0.027233717326899772176452 0.020359272285359577420172
32.000000 -0.022192327900092859160885 -0.015856660774926662621498 0.013798734586406152802240 0.119514951731381963151435 0.031008696076007719738543 0.022899556400708152154033
34.000000 -0.022866902048378674044971 -0.014659060272471812272355 0.013573315149916442834410 0.137070131480417939373595 0.034520136955886633611801 0.025330622646987932533591
36.000000 -0.024403015352519184105740 -0.013619664009699938844733 0.013365448979849108360196 0.157289056127446619237631 0.038374607026755838679044 0.027913012568685384440226
38.000000 -0.027005754305425073991120 -0.014552467192688538222267 0.012019003701757333124611 0.177388972497381586235221 0.041840171910890552875451 0.030260881786806980570104
40.000000 -0.030773524539359976837094 -0.015468410252828435416661 0.013075740749868608805984 0.201004400415000977764279 0.045853590544748266955022 0.032974762919087567680787
42.000000 -0.034971270086166350576917 -0.018201992452597459681840 0.013214964936704055517569 0.222278408890582895862664 0.049886413927635202270050 0.035794261787121292583969
44.000000 -0.038871505582511282905767 -0.021364599153486877464170 0.011805157316645208467887 0.240169741045417023395103 0.053659777370564036569345 0.038691462133518969568335
46.000000 -0.043865423819442840580596 -0.027157745217628596196002 0.007669894080706933341129 0.254505694412011429506038 0.057567282140478175100906 0.041870376577046404531490
48.000000 -0.049425300937260913114457 -0.034073821749288732418925 0.003467308526859992807989 0.269433571016314488133503 0.061539752685130108544875 0.045155104844162671784424
50.000000 -0.055273188347870275127782 -0.042277983910217808993792 -0.000175620799033304123959 0.280438324523694493262127 0.065130164841338045178532 0.048468275091175884450312
52.000000 -0.061817349239358151957724 -0.054527400507989570721534 -0.008001635613420264234175 0.287920166412784728215968 0.068161039746052268228915 0.051466400309485675623744
54.000000 -0.069186881265603961121968 -0.069058040862735495246660 -0.016351552007767729268739 0.293270573124031153078306 0.071129459771819114610736 0.054342648042990514267725
56.000000 -0.076428459107000717986935 -0.080862794094335374572857 -0.020062277053182395875064 0.302198948082609719634206 0.073327491239816161572307 0.056369118931531757288322
58.000000 -0.082601967678989335341910 -0.088608568816859648031858 -0.025722576805123343463011 0.286128712647282734682364 0.074844358651369541357568 0.057841652494180828547599
60.000000 -0.086970907342261413730533 -0.093508534904828313760738 -0.033165808296077133043855 0.249762245387318670974963 0.075527930392113903912410 0.058658340659028383734519
62.000000 -0.090790376672382142042572 -0.097466397873738661039589 -0.041489193269800037078276 0.211287105511694439652359 0.075152216833045779043054 0.058532759484650295767061
64.000000 -0.092622818654458982656763 -0.101280721158076597587794 -0.051485494591885935800057 0.173953966699284340302611 0.073201339741664275817534 0.057296575445177432006627
66.000000 -0.092352096237874312101290 -0.099135634071325570704225 -0.052326735979116363595143 0.144445773815033262632568 0.070758218554436688729758 0.055768708846513026511360
68.000000 -0.090461615867666086976406 -0.094341079202973993078629 -0.049410354168401095231733 0.117209218500895329118094 0.067786224494795210837594 0.053937411749005029215631
70.000000 -0.087883538565911870077407 -0.088143218441394791118348 -0.045159403914692336501346 0.091762458507505917371105 0.063808143849408430203773 0.051605195754341130764953
72.000000 -0.084484288047922698194903 -0.080777226563684675908483 -0.040074326865625974070095 0.062914984551691074954327 0.059718879441546982023148 0.049086635685453093580488
74.000000 -0.079412393277594833795874 -0.069735173151378865297190 -0.031532828031511611621696 0.039851181838156078673929 0.056193854421202317495077 0.046758904595489460265245
76.000000 -0.067388423268271852029088 -0.052195668044346520131338 -0.016771088062010355151932 0.019073902090399545705690 0.051579633577492546570031 0.043473432701844054448781
78.000000 -0.056586788749074697080221 -0.039580321807534610267787 -0.008941114048121864138485 -0.002588838119411094717409 0.046790858494408726908631 0.039808068135347450533512
80.000000 -0.049101369408030906549278 -0.031185271837546164885868 -0.004820247339855931317798 -0.016318348559025593058625 0.038519315709986685913879 0.033572241118887555244577
82.000000 -0.040399286273024921645192 -0.021390471458470533550056 0.001316725743052368042749 -0.020307223986044321828448 0.026700440503212328341442 0.024694892245563569016520
84.000000 -0.031474269872442721396322 -0.011215794445476469365364 0.008883543073494790803801 -0.017930491618386022734111 0.020022748383128907007089 0.019441987893633303624563
86.000000 -0.023874193782275444225549 -0.004646928407806005800751 0.012557493873497679870432 -0.013238214211725838134748 0.014639995159948886865875 0.014986698930811802321639
88.000000 -0.016511764997329300697082 0.000773268996026984438245 0.015905984573818757882302 -0.008446545647455852567909 0.010782654120223894231301 0.011527224001354946514297
90.000000 -0.009604091891497223629215 0.005023311320613344822805 0.017489364845149017041459 -0.005830429271160681402308 0.007716121357697849035551 0.008652481846085066652385
92.000000 -0.003070797850977799621497 0.007692138105777708047273 0.017645016270510127665005 -0.004614896924628567563553 0.004150759383855812112429 0.005415451095369262779489
94.000000 -0.001055869515384642593619 0.006148822642302318938756 0.014333770473595379077447 -0.005792528257530512453277 0.000606187425083067055187 0.002429665825981707199394
96.000000 -0.000682086728978244997805 0.004050414863188959990747 0.010621487224126717821560 -0.007063140245115599562264 -0.001866445943125689520964 0.000245106833524827373485
98.000000 -0.000095946858942615119415 0.003361074107185578474510 0.008567401878822109365097 -0.006514854720113956790262 -0.002818491411129535155478 -0.000809732722572936778997
100.000000 0.000136333994274410563296 0.002455473186674718769074 0.006038484177050174213364 -0.006108207483797358124111 -0.002261170455902145309118 -0.000660226129374482891866
102.000000 -0.000053946016158199678085 0.001095537712146021783535 0.002881951755527745184793 -0.006119982519447876578855 -0.001212713880066064540270 -0.000073528716989095527635
104.000000 -0.000004832182458637147267 -0.000131569314344238817065 -0.000622170782163122262562 -0.007020260689255063135672 -0.001294451403703373963683 -0.000236913870766917284381
106.000000 0.000187627898229348157640 -0.000068094299132210228719 -0.001195544311103940776295 -0.007207891747552796699039 -0.001238265677615838118719 -0.000270909145675988203856
108.000000 0.000476901493890312497444 0.000326312293994036515220 -0.000796846752619778924548 -0.007092704170994493760583 -0.001230903521057477752187 -0.000347479270797847075540
110.000000 0.000774227804629815845663 0.000686528048647421971183 -0.000471038670775015405612 -0.006977686456493039854343 -0.001353423432481900418045 -0.000546356840330751067879
112.000000 0.001010212198861645382236 0.000953929703987947859301 -0.000239125275035641991729 -0.006843824715475159241318 -0.001291813382935947437241 -0.000584016755372650307569
114.000000 0.001212952693093331639485 0.001177021967247350890326 -0.000053395882767321081058 -0.006698306647984822274899 -0.001250997373910381609691 -0.000638483775899722637466
116.000000 0.001469979060683862612940 0.001433604595896775064576 0.000149058309250327773862 -0.006546525899900861381053 -0.001390699875660559052190 -0.000852950691157862385047
118.000000 0.001713500935526794232561 0.001659138849722622231775 0.000293016117356972936436 -0.006470423678485647325798 -0.001620224446199454958195 -0.001115222949497526091361
120.000000 0.001922937628231998971606 0.001821041723617104193464 0.000367477924278088966415 -0.006459524853992008527892 -0.001858704586254375209012 -0.001368277540743625866199
122.000000 0.002069176095814237448245 0.001921325865491684383238 0.000387903005398730063233 -0.006480218583494396292211 -0.002020208831820993929107 -0.001534252732128260632294
124.000000 0.002151451415333956434378 0.001961302980898981234564 0.000356773467178850246188 -0.006532938725088670815777 -0.002084869212537050504191 -0.001593836194605763312282
126.000000 0.002218473036684646092220 0.001991696320925572839811 0.000324804642440422626504 -0.006583252494619024064448 -0.002135168547982884551528 -0.001639665828647097773479
128.000000 0.002275954696563642441071 0.002018119171330494572569 0.000297071151568870344805 -0.006629438140642829498106 -0.002178391797877516234544 -0.001679912678624222556814
130.000000 0.002325551037432901750612 0.002041602418851435306324 0.000273514769928797512894 -0.006673458264936890302343 -0.002215934881237727020753 -0.001715374581986540969414
132.000000 0.002368752217425530281342 0.002062950146818904283152 0.000253837307607649830931 -0.006716746094455568368009 -0.002249117991118156859726 -0.001746940907113929755679
134.000000 0.002406810942077542390949 0.002082741213015220412691 0.000237575798950096363053 -0.006760365786269162576005 -0.002278984800179149460692 -0.001775346868209181760284
136.000000 0.002440767142723466662235 0.002101394593559803222749 0.000224207182366241956776 -0.006805075781947675719885 -0.002306346431090974466449 -0.001801191353890430144752
138.000000 0.002471483089151295300251 0.002119220483112456074326 0.000213210041350400940786 -0.006851428513208567341874 -0.002331839773959865861480 -0.001824973527120029399493
140.000000 0.002499679542678574263592 0.002136463500400436268944 0.000204115519617660443009 -0.006899798229709776763163 -0.002355975934435550808027 -0.001847120823959417026949
142.000000 0.002525967307305421183372 0.002153333847778601557038 0.000196527961415409764675 -0.006950443523302266696229 -0.002379168903804404662516 -0.001868002922581657671355
144.000000 0.002550843945197492877719 0.002169991960341381958405 0.000190099227204464522314 -0.007003537861472674229402 -0.002401755268252028438503 -0.001887938274874648028959
146.000000 0.002574734091153970619997 0.002186591159335105321454 0.000184564916449508664752 -0.007059190560205435768792 -0.002424014763188396537341 -0.001907204562189248079826
148.000000 0.002597989277840641753753 0.002203258983563325008881 0.000179699356273425192186 -0.007117510768565272691322 -0.002446178938424021891140 -0.001926040757118753065508
150.000000 0.002620903890364440110006 0.002220107931743814291131 0.000175330654190665658669 -0.007178572120078880250404 -0.002468443609650101955300 -0.001944653853881225021721
152.000000 0.002643720886466709510398 0.002237234264496321817228 0.000171312039634939443627 -0.007242448739426245347961 -0.002490972855898532754837 -0.001963221097648398284774
154.000000 0.002666647914016512938007 0.002254727443860898763311 0.000167535916346806012297 -0.007309223360753905156251 -0.002513906737984726493668 -0.001981894896363743316381
156.000000 0.002689861089165997490302 0.002272669920166860407090 0.000163919895531930702752 -0.007378974821000558285966 -0.002537370012495533851127 -0.002000809607593265725123
158.000000 0.002713506784195632553364 0.002291128504108116709787 0.000160387255740652702419 -0.007451811081883048110130 -0.002561467733666953575794 -0.002020078498763711993130
160.000000 0.002737714928986936021443 0.002310171051176441309183 0.000156884825822888382537 -0.007527837456997709536521 -0.002586299521874653537662 -0.002039805310994960256543
162.000000 0.002762598434792939289251 0.002329860879517569455244 0.000153370196411586244773 -0.007607175723808458356334 -0.002611951444586038933310 -0.002060078870813315029403
164.000000 0.002788257258177632633145 0.002350253088869755802720 0.000149802298518202114432 -0.007689960768158234961922 -0.002638506290267885346507 -0.002080981048557833511942
166.000000 0.002814785888079973479037 0.002371407793610006992796 0.000146155052870368618251 -0.007776347782472181092983 -0.002666044542458424326109 -0.002102588666593768317731
168.000000 0.002842267251311220849219 0.002393374110657248317324 0.000142393636390657012895 -0.007866504329576116255618 -0.002694637920202552338472 -0.002124969366834871496719
170.000000 0.002870782508712345360014 0.002416205404403461501350 0.000138492320003553130584 -0.007960610162495048575115 -0.002724364744035238320580 -0.002148192759672689928357
172.000000 0.002900413078957685998616 0.002439961704199638745094 0.000134435218111920231103 -0.008058859963716647964449 -0.002755300958299911236182 -0.002172325034332187390640
174.000000 0.002931234176289136510174 0.002464691779129591329978 0.000130195960240798031806 -0.008161466403677269595973 -0.002787521074518668415254 -0.002197430010184477176122
176.000000 0.002963321647150678195271 0.002490449908879995184752 0.000125748429577029048566 -0.008268659151026239509386 -0.002821102628903280826189 -0.002223572122951504928534
178.000000 0.002996757859244341543059 0.002517298326443580779033 0.000121075102918584098202 -0.008380683091079093802178 -0.002856128761235475575081 -0.002250819352168657774133
180.000000 0.003031623052833085345953 0.002545296443884498879123 0.000116154586311095024405 -0.008497801281405802445446 -0.002892684817694561767720 -0.002279240462686818631532
182.000000 0.003068000882063826040280 0.002574505357338366298009 0.000110957906818820163609 -0.008620300447922210618223 -0.002930858363796172601223 -0.002308905248683921097169
184.000000 0.003105979362705334981959 0.002604990957779650465054 0.000105464083958309738013 -0.008748486157264513674026 -0.002970745985722659642664 -0.002339890126277757633616
186.000000 0.003145650115746178102083 0.002636824134873868002299 0.000099644873931754800287 -0.008882686612029703707161 -0.003012446968963262711877 -0.002372272999861578437336
188.000000 0.003187111629335699289345 0.002670077704552976591290 0.000093472196276301176723 -0.009023245811281320818975 -0.003056066920939159211462 -0.002406136425513432774287
190.000000 0.003230466017699890578230 0.002704828076961305217268 0.000086913215721826631824 -0.009170544490442876506275 -0.003101719243772422997946 -0.002441568770925607936850
192.000000 0.003275820378754243280411 0.002741156629789441318695 0.000079933109956536018271 -0.009324981428084683568458 -0.003149524832545876756873 -0.002478663739394241886937
194.000000 0.003323294644049273622449 0.002779153420517732099582 0.000072497452895796149919 -0.009486996528183386928612 -0.003199613602887339033204 -0.002517521892331195040859
196.000000 0.003373011526378675000587 0.002818910581542032403601 0.000064563971068170290216 -0.009657052618729022180899 -0.003252123105810668379778 -0.002558249696773970838920
198.000000 0.003425102930009191800481 0.002860527665697797095046 0.000056090191691351350156 -0.009835652429489168471766 -0.003307201881473517506016 -0.002600961741783440386161
200.000000 0.003479710513180193660193 0.002904108826082937595131 0.000047026431045666479327 -0.010023334602673194398959 -0.003365009459084870348244 -0.002645781028378303440657
202.000000 0.003536984758503548126329 0.002949767334902061652335 0.000037322751405720156024 -0.010220675861058171191020 -0.003425715308442718164822 -0.002692838288926430873049
204.000000 0.003597089892393602085507 0.002997624671638912836891 0.000026920138452189871028 -0.010428298330839854551888 -0.003489504825432987195760 -0.002742276224078623366592
206.000000 0.003660198240200350418977 0.003047810842557644936401 0.000015763403057659284813 -0.010646875380442994904473 -0.003556573634910235436751 -0.002794245513253215858207
208.000000 0.003726495549111715106794 0.003100458953064814948686 0.000003774002007483861609 -0.010877130859999870407528 -0.003627133538890885740974 -0.002848909017337124521124
210.000000 0.003796182171493716304977 0.003155718412108107686492 -0.000009114632045773353824 -0.011119841057566902733922 -0.003701413334239879882742 -0.002906442838006314047239
212.000000 0.003869470599059848022611 0.003213744089311820675142 -0.000022986569683259055390 -0.011375846063390267215443 -0.003779658484248737439215 -0.002967035482217819306050
214.000000 0.003946591717995425428744 0.003274704694120956268572 -0.000037926433032535558946 -0.011646046777398262259129 -0.003862133557494012991995 -0.003030890580253036217795
216.000000 0.004027790827212147581338 0.003338776259849824713799 -0.000054035140546553304681 -0.011931419225807371464754 -0.003949122075694693791148 -0.003098225776839305146970
218.000000 0.004113332359374284596942 0.003406152293589921435657 -0.000071410341486941150604 -0.012233005550221404816869 -0.004040930622805929961494 -0.003169276765737834202635
220.000000 0.004203498201067207978854 0.003477032232321644687062 -0.000090169830953195056599 -0.012551941436867972839986 -0.004137887443119157501736 -0.003244295585950856316421
222.000000 0.004298592685724433350158 0.003551635236248203760651 -0.000110433758760371378196 -0.012889436886156391964819 -0.004240347826468743482053 -0.003323554901196830099752
224.000000 0.004398940829911585255474 0.003630192819341862553451 -0.000132333270206403308313 -0.013246793688447418627097 -0.004348691609756084180960 -0.003407346466142483886602
226.000000 0.004504889023713499682233 0.003712948568584856050279 -0.000156011665623862432308 -0.013625416005426778387477 -0.004463327374421580118202 -0.003495983905864849528022
228.000000 0.004616809334447230690757 0.003800165745236338665086 -0.000181618284276524583455 -0.014026806685941691638098 -0.004584692756111102135419 -0.003589802981451876377067
230.000000 0.004735098529262676304852 0.003892121745774861692885 -0.000209315909708008234371 -0.014452573295134999581402 -0.004713257675330278020920 -0.003689164293961040824027
232.000000 0.004860179597653301042381 0.003989110562674351261048 -0.000239281290656995882611 -0.014904441644407717335041 -0.004849523767472542663814 -0.003794452724910665156882
234.000000 0.004992505446174551678173 0.004091447184379625075235 -0.000271693962609811240361 -0.015384243556797674509773 -0.004994027678085884158765 -0.003906080065919549908909
236.000000 0.005132557702169591833108 0.004199463715792308739216 -0.000306753220295996446593 -0.015893936103586744218452 -0.005147341287856389488442 -0.004024485229349195405946
238.000000 0.005280852428264169728944 0.004313512408071778006513 -0.000344672966497299912945 -0.016435604516039960254492 -0.005310076262322038602448 -0.004150137878669774883778
240.000000 0.005437941691507958488772 0.004433970885740103409778 -0.000385684968497933830869 -0.017011466300014224661830 -0.005482883023333102838481 -0.004283537564486185680868
242.000000 0.005604420508627385583145 0.004561245801954071088513 -0.000430040713548664351156 -0.017623879559254328891482 -0.005666458523259108870374 -0.004425220183823103115017
244.000000 0.005780928251408837606484 0.004695769346145212130850 -0.000478033946223431092590 -0.018275364099154742247855 -0.005861548790591247261317 -0.004575759975965081743920
246.000000 0.005968160432198818532434 0.004838013181733454189104 -0.000529999230098051905130 -0.018968614719043961486244 -0.006068958451495168673895 -0.004735777233746191715313
248.000000 0.006166875689822780975957 0.004988489619070282481139 -0.000586335912696467234477 -0.019706538856733214759576 -0.006289560894655734507586 -0.004905946450511245934822
250.000000 0.006377909195521401335138 0.005147763400645605745554 -0.000647527026070066741813 -0.020492299459749691720178 -0.006524314447738095538998 -0.005087008885916582782982
252.000000 0.006602180380503466436415 0.005316453993308324979528 -0.000714164960800983900438 -0.021329375206050670693569 -0.006774279178318785323010 -0.005279785903313323827679
254.000000 0.006840708407297523864499 0.005495246341750828662776 -0.000786973109504142246708 -0.022221629364189570549071 -0.007040641540760104490071 -0.005485197747227337113085
256.000000 0.007094621770552829616296 0.005684893086154781983999 -0.000866825815308985359389 -0.023173400905845051994669 -0.007324739116400238655991 -0.005704282281379384825226
258.000000 0.007365165674666612413701 0.005886213266682344125158 -0.000954763191452841718763 -0.024189603195862028478524 -0.007628087737177476589101 -0.005938215055400536748764
260.000000 0.007653704687545951484973 0.006100085568230912726195 -0.001051985073277779316608 -0.025275818333103019369679 -0.007952404591069344233500 -0.006188325639236623432193
262.000000 0.007961717750986058161899 0.006327428595418792788008 -0.001159832233116104074910 -0.026438389207987082057949 -0.008299625549291381187977 -0.006456108550258664487143
264.000000 0.008290778416949539514347 0.006569167667053282290424 -0.001279740370751954224929 -0.027684480625067252324012 -0.008671907405117123407434 -0.006743221896086140816629
266.000000 0.008642531340696585698269 0.006826193715632802513915 -0.001413165962836778052555 -0.029022097103453346755852 -0.009071613094009922315109 -0.007051472447468762165534
268.000000 0.009018659540475378044722 0.007099320898657509627816 -0.001561484770048904768477 -0.030460032498594094563238 -0.009501271642230191272205 -0.007382781216185741769709
270.000000 0.009420849911595250911200 0.007389247784149990429248 -0.001725875042130332187584 -0.032007756376739832093747 -0.009963514945662570523877 -0.007739131594398912690480
272.000000 0.009850764791406892845194 0.007696534939854391896286 -0.001907206896212514622702 -0.033675214279398242578356 -0.010460995063229575063879 -0.008122504194714949901646
274.000000 0.010310028579541875154435 0.008021618464711393822753 -0.002105963038813172920338 -0.035472574263390989346423 -0.010996290677950623301817 -0.008534806625507053087776
276.000000 0.010800234087295716364774 0.008364875764524857398863 -0.002322208396798196815281 -0.037409927977596589554476 -0.011571821357440722349841 -0.008977813455281011961739
278.000000 0.011322986240442610428314 0.008726756539756613112457 -0.002555622200337394692160 -0.039496984499989604144865 -0.012189786493143903514658 -0.009453130851660402483860
280.000000 0.011879991179811791660037 0.009108011344268363007615 -0.002805567569525441694311 -0.041742799616726153355550 -0.012852153974255179844088 -0.009962205974289629895058
282.000000 0.012473183327679123952314 0.009509968518215880517452 -0.003071228296594529817709 -0.044155550005684780778825 -0.013560706559566315654308 -0.010506386544362924032048
284.000000 0.013104895966537195850510 0.009934841903552087127860 -0.003351806141144347220978 -0.046742450290907677779018 -0.014317163247420886668104 -0.011087039120006079648273
286.000000 0.013778051001821748841603 0.010386016240981814015565 -0.003646768855583687549832 -0.049509822750723152251506 -0.015123369346573134128220 -0.011705718045926892870168
288.000000 0.014496353338973776148091 0.010868251450661350898663 -0.003956187714343541682316 -0.052463389983872281419064 -0.015981557373014390610599 -0.012364380468386452355256
290.000000 0.015264433188538626545716 0.011387694897004948038632 -0.004281191617214289389659 -0.055608832431013513475371 -0.016894666345738482138295 -0.013065632091198646491659
292.000000 0.016087871015627298182382 0.011951620686379600330684 -0.004624500354606425091275 -0.058952652234528307717554 -0.017866696827051178897428 -0.013812982144289959879346
294.000000 0.016972980158696113900385 0.012567797405442750896531 -0.004990780001215272890236 -0.062503152523860724953941 -0.018903028747819041605061 -0.014611051838488337689670
296.000000 0.017926022686255281557433 0.013243255557130973951163 -0.005386215398486364318298 -0.066270966068274192450893 -0.020010498971604125106882 -0.015465582765408748822100
298.000000 0.018951424745951201550342 0.013982289315521898714900 -0.005816080406744473553504 -0.070267974798156648819081 -0.021196807708872240222364 -0.016382912843273107067477
300.000000 0.020048961745434575737468 0.014784121803900573607904 -0.006278929221737712326745 -0.074502998550809454436639 -0.022468586279002115274617 -0.017368395946733939522177
302.000000 0.021211556859294308785557 0.015641889120760619352746 -0.006758354604758158752642 -0.078974163992876642015339 -0.023827742307100861079983 -0.018423443393717778282515
304.000000 0.022426633448489250582947 0.016545001821191500368524 -0.007217401257769998947078 -0.083660932231283374749253 -0.025266954351195164418797 -0.019541858358574918513861
306.000000 0.023680811412112409697350 0.017483940048528774646730 -0.007602157431216670889496 -0.088520052155815973082831 -0.026766625977285310455933 -0.020707326073145026351652
308.000000 0.024963244354565629345988 0.018454300580323639707769 -0.007853839183420162350924 -0.093485431576749045134989 -0.028295478561743171719289 -0.021893970337090829653137
310.000000 0.026264641341255157841461 0.019457928740399220435275 -0.007921893113647354711659 -0.098468270900584645155540 -0.029814979747827190931231 -0.023070453875750553118795
312.000000 0.027573594409485310124941 0.020498725718113560562150 -0.007775089992343761635674 -0.103357663384536072048725 -0.031285484182101128136644 -0.024205926052727467362446
314.000000 0.028875337431031589813246 0.021578185311301834731212 -0.007406283661290434354452 -0.108023363616820439192523 -0.032671323014164144193927 -0.025275041551540231715700
316.000000 0.030158707159581635975920 0.022705190522973432015741 -0.006820029134492592431949 -0.112318773943164765261038 -0.033943662686460533695065 -0.026260442577930344365544
318.000000 0.031425169488350786217712 0.023914328814194599215348 -0.006008825713089491725449 -0.116081087717286729477095 -0.035080911266140928084223 -0.027152360008388626982923
320.000000 0.032685937190731734203197 0.025265849905785158630023 -0.004943025432262054472132 -0.119130207430997919759719 -0.036066433915619325323298 -0.027945511034276036138602
322.000000 0.033949309472822646049917 0.026825033986316058204347 -0.003581956889004362602075 -0.121273278011440652224273 -0.036884511567953075228399 -0.028634418704544657013900
324.000000 0.035210028917669979053873 0.028635497374814487814287 -0.001900700057625575277453 -0.122325342897429661936926 -0.037517587965618368062160 -0.029209563761841583762191
326.000000 0.036444331451059006066195 0.030691203216529662489709 0.000076017399868201011013 -0.122141308543818979948092 -0.037946497982849637653491 -0.029656017084830298830012
328.000000 0.037609282237898597478498 0.032916072080608600736173 0.002258289043953618218524 -0.120633665504583778571579 -0.038152361148800266466008 -0.029954270288336710265087
330.000000 0.038645641594134201579624 0.035162132679585039740644 0.004506657563780861255887 -0.117761157661363316528913 -0.038118253648170639935611 -0.030082214283421681438879
332.000000 0.039484057225868687823755 0.037223861606458921724716 0.006659265573069234576964 -0.113499396166924684803412 -0.037830221360303159516825 -0.030017963809387631507475
334.000000 0.040054683688316473910707 0.038871405019369489886039 0.008561392597568653548001 -0.107816137224221592072482 -0.037277992574619299437355 -0.029743479270719457019378
336.000000 0.040297733102732401222479 0.039908747256063789587976 0.010101469046855642702765 -0.100676238332616213577708 -0.036455599586364989539433 -0.029247985087550762428599
338.000000 0.040168659538795600805194 0.040225120653198088993552 0.011230264686042849484049 -0.092093652532640762897742 -0.035361746928635293119036 -0.028529428808114237758886
340.000000 0.039635329712605346652587 0.039791981940285270358260 0.011931829992976811585792 -0.082217958632810575481109 -0.034000299606363020010757 -0.027593610722416634511989
342.000000 0.038674807265998187300049 0.038622051910973273503025 0.012176754645698466619774 -0.071389517301520377667856 -0.032381727414401408060574 -0.026452650215426701946209
344.000000 0.037277078027028530404774 0.036744908144679337691496 0.011917451237449491405207 -0.060090600160246171457246 -0.030526795357695493682293 -0.025125190951940604838777
346.000000 0.035452317065012367569565 0.034214485827196806921879 0.011129459611911701397147 -0.048824544797582462851704 -0.028471014472638802444981 -0.023637649435044733037259
348.000000 0.033233914042364760821346 0.031124811449301965915470 0.009852132480323745611361 -0.038031698505736587223591 -0.026264197037590374800287 -0.022022686609497861554008
350.000000 0.030677228570423622361352 0.027613801263557537224447 0.008195777765708208220663 -0.028077043262161066605742 -0.023962847155991839898093 -0.020314331503282018198675
352.000000 0.027859997960028359820228 0.023853468930284012217147 0.006317023768885853159116 -0.019267914659515269354406 -0.021619475877454059908889 -0.018543016636769046184829
354.000000 0.024879498240308120515785 0.020027185094066025233817 0.004377499211967119177591 -0.011864388347541124368867 -0.019273874806500751466487 -0.016732778944132872811501
356.000000 0.021838331296005129150695 0.016300291520709071085848 0.002507189725566764167825 -0.006056464736381027454126 -0.016951901951284733399694 -0.014902670290685687132237
358.000000 0.018824730778814663390008 0.012800904207428773912136 0.000793105386513028184046 -0.001898089572319182870286 -0.014675280281486138833635 -0.013073793436892661157245
360.000000 0.015904259338137258228407 0.009622821519726279526630 -0.000704410786601193509605 0.000747347843385717152190 -0.012475179024864002652606 -0.011277158260088295319012
362.000000 0.013129240345929217917420 0.006840359691467435242218 -0.001929456407789437166755 0.002183193365438441599369 -0.010394287988670574546246 -0.009552942962018116240808
364.000000 0.010553497317109760550435 0.004512667890987942000136 -0.002829778505553587515664 0.002779994863762352049624 -0.008475675934868334010508 -0.007941036133197722224342
366.000000 0.008236377094362571163466 0.002672284692482894408183 -0.003377997055186332704679 0.002867647787055675051571 -0.006750885966116681319305 -0.006472024914019189160974
368.000000 0.006234580939601446110399 0.001315764237867531527212 -0.003585717589661427742720 0.002683168618125497065924 -0.005236846298842547792196 -0.005165006161824100758273
370.000000 0.004587658029636068439394 0.000405376632829492519576 -0.003498152011023494649400 0.002374529207937231024828 -0.003941513763108651577372 -0.004031320495945126675119
372.000000 0.003302225763177136282772 -0.000125227473726627125178 -0.003181488377444982064424 0.002026242630901565512647 -0.002870333556434117184414 -0.003078622998158201534702
374.000000 0.002347568232385645412702 -0.000362141892841259165157 -0.002711205430589899625232 0.001684520185104420838054 -0.002025907913770958607147 -0.002310613079793381093724
376.000000 0.001668318350421479391577 -0.000396460397446407066240 -0.002161568803662750060113 0.001375153463702074837019 -0.001399862709820301259409 -0.001721612541902353687995
378.000000 0.001201260835276860266391 -0.000312085535316855436708 -0.001601276640535658369463 0.001111735327331867971210 -0.000964306884535256082086 -0.001290632507286001073518
380.000000 0.000886343977083927704076 -0.000179537680864610824831 -0.001091911011699433402614 0.000895516589684712473358 -0.000675220179089172883695 -0.000983898704520102607499
382.000000 0.000673641668132132190490 -0.000049470153919358641895 -0.000677623526686787960166 0.000717435912748649764863 -0.000487439603200368878552 -0.000766012999552795510738
384.000000 0.000527084894812204730538 0.000052160541947505415644 -0.000373289801799873359033 0.000566073622343078383667 -0.000366366199120973692459 -0.000608963316726653385198
386.000000 0.000423091118222933672364 0.000119460054352719575207 -0.000168384549190802771486 0.000433584170895129957651 -0.000288892503274244827078 -0.000493283576805173679114
388.000000 0.000346481234280102742135 0.000156486185162989032511 -0.000041511839072592307087 0.000316360738886695873687 -0.000239293369340175130161 -0.000405413617931769801935
390.000000 0.000287321128804858213785 0.000170008397383833659636 0.000028797254951976341988 0.000213272494950889816932 -0.000205988079001197802636 -0.000335542062893958575875
392.000000 0.000239267179599921372317 0.000166731434790310512322 0.000060413348862159950490 0.000124840437370007592555 -0.000180454506186236620507 -0.000276865910784548311524
394.000000 0.000199010603207059152053 0.000153044190346561152045 0.000067757345013033654091 0.000052024385900047819670 -0.000157707718977101798985 -0.000225845462558449947606
396.000000 0.000165448079361701135687 0.000134699482818129341339 0.000062012998945640862331 -0.000004877868180687792982 -0.000136486420937972880796 -0.000181980969778387005045
398.000000 0.000138390326538622918107 0.000116093815661992037845 0.000051123959349356206414 -0.000046762610806285830176 -0.000117706331735207040626 -0.000146075571395415154587
400.000000 0.000117366702381633013002 0.000099631218769030664034 0.000039604846010045041487 -0.000075883600255658171987 -0.000102238904723167835210 -0.000118231967775795116936
402.000000 0.000101349207314578652591 0.000086067781754123798125 0.000029480975077250545996 -0.000094931915860878350556 -0.000090008058819311166383 -0.000097355750220419620070
404.000000 0.000089179853419916218886 0.000075251167943691466759 0.000021319143144949026259 -0.000106563629093202609684 -0.000080408272343039186177 -0.000081874055698316221307
406.000000 0.000079847813950858058537 0.000066762132047973882644 0.000015103853593964721439 -0.000112881840537729918536 -0.000072779991205138830010 -0.000070357855440492046879
408.000000 0.000072601976206227621384 0.000060130029267005318341 0.000010566285317138120528 -0.000115402601562040636198 -0.000066632205696362580027 -0.000061739703179379456436
410.000000 0.000066890028152551746655 0.000054962977926584078553 0.000007402789194804866864 -0.000115331210893042095003 -0.000061618788209353910911 -0.000055244090683956547901
412.000000 0.000062312019456307573065 0.000050917840228364424503 0.000005290345157026015131 -0.000113503650465441452292 -0.000057472296452673974504 -0.000050288923492233520893
414.000000 0.000058531784083727577610 0.000047676593151259204402 0.000003954068086586392050 -0.000110550765628513201827 -0.000053996284212935761278 -0.000046441607488833459481
416.000000 0.000055333060890606007066 0.000045004750393011323730 0.000003135801112450984394 -0.000106891065739794281450 -0.000051019656901174102390 -0.000043368135825745442061
418.000000 0.000052536180676108087354 0.000042692358929627837892 0.000002618155992815890728 -0.000102870911973420618517 -0.000048397120100751735801 -0.000040818235180605622709
420.000000 0.000050012636287936044653 0.000040640766994712984985 0.000002328058849835435700 -0.000098585052388943788257 -0.000046021794544250039984 -0.000038617805943294733451
422.000000 0.000047681791070489326460 0.000038749072351259218237 0.000002141673744869314799 -0.000094181746461168903192 -0.000043822749985375183176 -0.000036655377904356164717
424.000000 0.000045500154010777927769 0.000036963652874163983658 0.000001995249992740330566 -0.000089776612518389364305 -0.000041766890998172269162 -0.000034868567421275302291
426.000000 0.000043434730649988690645 0.000035266433706537200245 0.000001896957892721520813 -0.000085432953158356758215 -0.000039825279103569844591 -0.000033210967813738285126
428.000000 0.000041451320073556092527 0.000033606161806647585433 0.000001751711711416079438 -0.000081230571040575346581 -0.000037972434603514954813 -0.000031648750113889025342
430.000000 0.000039535147802840387842 0.000031994811003109692525 0.000001609830265741296148 -0.000077144964346177854943 -0.000036202209376471025421 -0.000030168567246332360761
432.000000 0.000037692629580749137863 0.000030444217388872530131 0.000001479867525683410161 -0.000073203799392961910793 -0.000034503146278738428497 -0.000028755250025928466779
434.000000 0.000035934514601666968500 0.000028966036936473936420 0.000001355978320781466605 -0.000069434310490766154014 -0.000032884149468003538318 -0.000027411227253877366779
436.000000 0.000034233720077833720570 0.000027518777843782555155 0.000001207092478910583163 -0.000065929401409965906924 -0.000031335617170918087697 -0.000026125016098798283990
438.000000 0.000032605580115111632141 0.000026165644878279416046 0.000001120447100422850778 -0.000062585585960927658626 -0.000029850281247187208412 -0.000024891796114067484322
440.000000 0.000031036028739070502778 0.000024840276427311856500 0.000000996639854044830763 -0.000059521937780399384026 -0.000028423809707231167395 -0.000023707068769108146722
442.000000 0.000029527517131448394872 0.000023583282046560949575 0.000000895133202024527497 -0.000056639098206442162219 -0.000027048710388695431723 -0.000022564804199476098609
444.000000 0.000028087746859263277606 0.000022401589836789783614 0.000000803621183344779251 -0.000053933897040552536385 -0.000025739328687497706156 -0.000021477403426371893114
446.000000 0.000026694473644902713157 0.000021264038633671045647 0.000000714815971134986599 -0.000051386863239035021666 -0.000024485248466970803996 -0.000020434686730738699261
448.000000 0.000025373946578702166217 0.000020202587708152886279 0.000000651624475928392038 -0.000048939787014382930830 -0.000023285338245186028966 -0.000019436743108844147811
450.000000 0.000024121602154112486380 0.000019232219470369047988 0.000000645046628593667624 -0.000046581517840763962538 -0.000022146664548096165988 -0.000018489389245347653037
452.000000 0.000022952516493780656537 0.000018296649684643555831 0.000000602292149943385634 -0.000044374690811416539807 -0.000021062530619368186312 -0.000017587542418498659401
454.000000 0.000021839239314971616398 0.000017417962268007547763 0.000000592423155665206701 -0.000042200888921534324692 -0.000020027873450577009180 -0.000016726182733509231112
456.000000 0.000020771373029239433532 0.000016578903161810787267 0.000000581863551645841990 -0.000040147020329918894238 -0.000019048960501025176189 -0.000015910237343582733452
458.000000 0.000019767079225522747593 0.000015811725152489296552 0.000000610702317376215689 -0.000038194001185173914606 -0.000018124297858650489023 -0.000015138176291558238585
460.000000 0.000018841710709062501868 0.000015089941333725795478 0.000000614718018277009365 -0.000036294254283747197636 -0.000017251324477652728740 -0.000014408840985439937824
462.000000 0.000017930964218530261623 0.000014385089743832122082 0.000000612946252780647642 -0.000034535143029427867721 -0.000016415212261976175280 -0.000013712578496581313348
464.000000 0.000017071556649573487818 0.000013703674224311991316 0.000000576369264976819990 -0.000032843572798436195600 -0.000015618378514161652878 -0.000013048194010764552206
466.000000 0.000016234382701973356668 0.000013014475342152882875 0.000000512336290870279220 -0.000031218740403842997594 -0.000014870469445622999706 -0.000012423153865022175063
468.000000 0.000015452284105302628456 0.000012397941614771679089 0.000000519308677473490545 -0.000029644347970370439935 -0.000014147949391599822796 -0.000011821291869051401188
470.000000 0.000014703086568809896770 0.000011756642001468839951 0.000000450309580449559903 -0.000028206613475133876235 -0.000013462659453295805991 -0.000011248249710371220926
472.000000 0.000013977154794807861808 0.000011185904634690213688 0.000000445782234677036098 -0.000026783324942589187566 -0.000012801198223542380978 -0.000010695948040342896873
474.000000 0.000013303191078420743278 0.000010625613909418515503 0.000000403541884819837132 -0.000025447761881271439128 -0.000012182010405606143500 -0.000010180450591737130636
476.000000 0.000012661420439293731273 0.000010141076064870305790 0.000000407715335492045376 -0.000024170581839828749062 -0.000011587938393682982447 -0.000009682122260815793398
478.000000 0.000012024105598082836409 0.000009619978881116878004 0.000000355898531636913794 -0.000022973168902120010774 -0.000011022897138366702109 -0.000009209053504521586323
480.000000 0.000011426643330975638226 0.000009128603364634443841 0.000000294078285776294072 -0.000021867826870140695918 -0.000010475890351046186359 -0.000008754078422821667317
482.000000 0.000010884637368915922102 0.000008708242049194266448 0.000000306298328085242173 -0.000020843171923617124152 -0.000009975519191323045114 -0.000008334974224436488273
484.000000 0.000010345607877001976321 0.000008247934048860042631 0.000000235092095741318840 -0.000019847345217330458604 -0.000009483196942314711095 -0.000007923783819309286578
486.000000 0.000009862700400784712711 0.000007872958545301646769 0.000000269800183099797656 -0.000018860430028179226200 -0.000009027263234975150269 -0.000007542260710059303075
488.000000 0.000009368829471739607839 0.000007480848644479686908 0.000000268074955743327334 -0.000017869739395005869150 -0.000008582146612876270469 -0.000007171220138767450859
490.000000 0.000008913006953778802922 0.000007097132304750507261 0.000000209903074994239413 -0.000017063009116020969546 -0.000008167317275389239395 -0.000006824172400108502874
492.000000 0.000008477405331620015727 0.000006757088076073123097 0.000000227929705049397657 -0.000016286427805509143458 -0.000007779897539534832176 -0.000006496468009322827836
494.000000 0.000008055290218505155699 0.000006404822389060022315 0.000000220652840916907434 -0.000015514760272765317113 -0.000007408632297931975365 -0.000006184616126028956130
496.000000 0.000007679082869940807431 0.000006122259888281469043 0.000000250358507103553017 -0.000014809335711445925022 -0.000007060919217794456089 -0.000005891849468936838289
498.000000 0.000007290285342847690965 0.000005816536538776021416 0.000000226980559215748954 -0.000014071295238122159246 -0.000006720081910096279760 -0.000005605572293835461982
500.000000 0.000006933735082472672538 0.000005491629702244197513 0.000000139166852056786343 -0.000013431903807893973008 -0.000006386303351281586082 -0.000005327141107087528501
502.000000 0.000006605319311017749951 0.000005234470074639203352 0.000000113804857979193383 -0.000012832179641643593301 -0.000006085850212083854421 -0.000005075136611152965518
504.000000 0.000006291384016773073480 0.000004993995049632300035 0.000000136846599429440657 -0.000012205084027838776934 -0.000005804461502052502040 -0.000004838021705832206857
506.000000 0.000005995861060838846629 0.000004768021219934337398 0.000000164536511127326270 -0.000011631801900656985722 -0.000005536812355423299745 -0.000004615239975927460567
508.000000 0.000005715804471990972004 0.000004531719412167421000 0.000000111885433413662775 -0.000011101096484567213768 -0.000005273444937372903760 -0.000004396314131880199648
510.000000 0.000005434619001820609991 0.000004307833293927843314 0.000000100417693670861150 -0.000010636325535778984975 -0.000005026805721154116574 -0.000004191525009456361023
512.000000 0.000005170146289381728469 0.000004117326488522051713 0.000000097808162238982819 -0.000010090940522210483933 -0.000004785494990579893157 -0.000003988886023694832832
514.000000 0.000004931239483545089075 0.000003942147438446855881 0.000000137680020630270432 -0.000009607492647134429243 -0.000004561493505256498432 -0.000003800971008792982483
516.000000 0.000004710038231899848089 0.000003770425561685573868 0.000000176834479648782740 -0.000009111205409608013524 -0.000004352430883041005227 -0.000003625889405287786098
518.000000 0.000004473135280430107735 0.000003564520855478603979 0.000000142097327163580803 -0.000008723244541602683715 -0.000004150632964919571422 -0.000003455200485753184167
520.000000 0.000004246852861391001364 0.000003370704097485924709 0.000000108581370403985380 -0.000008281429585598499172 -0.000003951565008883876032 -0.000003289001227759329125
522.000000 0.000004066552554952856798 0.000003217023613460285612 0.000000081072603443964421 -0.000007937509561911897121 -0.000003768064385192366534 -0.000003135388025711569247
523.980000 0.000003889522381553787142 0.000003074003575483115481 0.000000014797326905545424 -0.000007663927089555580682 -0.000003595995802834124355 -0.000002991094182303843326
