0.000000 -0.000000000000000000000000 -0.000000000000000000000000 -0.000000000000000000000000 -0.000000000000000000000000 -0.000000000000000000000000 -0.000000000000000000000000
2.000000 0.000413285474466900933175 -0.000546318422734536567574 -0.000297668055058396925291 -0.003072828247982893872664 0.000309930621391164905047 0.000314978019574202114383
4.000000 0.000610942608384258505072 -0.000208000753962269178217 0.001183046476343347676308 -0.001095045578744210110558 0.000561330511633408133117 0.000566457147122079738080
6.000000 0.000163975533127411101774 -0.000477758600999655751694 0.002147356822682412215431 0.000671890026144148660471 0.000706577572212177388612 0.000710292829973335889879
8.000000 -0.000480167046541047693765 -0.000729427179471348096154 0.003459374034186151174869 0.002672947835216547569220 0.000955787376062384617589 0.000922615987900853680090
10.000000 -0.001855204958513836498851 -0.001616936975791161655580 0.004861181120053976317807 0.004943196611526251907365 0.001433822972933792736991 0.001333762791604954384833
12.000000 -0.002958692923819159371207 -0.001954711701058495145616 0.007024563091958755875477 0.007835602503022195616800 0.002127898262275267939059 0.001901364527563737492899
14.000000 -0.004429495368164984049619 -0.002821136556884844357601 0.009686191877791541088305 0.011857812138225183595797 0.003268727147067919825557 0.002782534273771967905237
16.000000 -0.005898634534838334900209 -0.004486449406826817885852 0.011573350119350197737211 0.016429549873039291790766 0.004897510030073298770148 0.004070237250467702988521
18.000000 -0.006155851861124969452710 -0.004703625549484602257067 0.015142049337964902031017 0.023291282912317849695949 0.007050680589698543609956 0.005712583521221547069868
20.000000 -0.007122106675251141036376 -0.006154794596359002001318 0.018229286528629751878983 0.031368478132461748153492 0.009607495946220378710279 0.007643055222662491036967
22.000000 -0.010099026562300628465096 -0.009466357278247341730526 0.020892414832818034797768 0.040076835290428727831546 0.012676611566827039254135 0.009929405465310757461506
24.000000 -0.013722371274746540323330 -0.014091723913802433471032 0.022698404917282904297293 0.049816010517559426717948 0.016177609614506510693488 0.012508233709644345568734
26.000000 -0.016832121674256003696080 -0.017445132678495064298962 0.024441544647377997506732 0.058904245193649722167617 0.019953417386371238156917 0.015378236870353534024303
28.000000 -0.020764801029117103958743 -0.021450706076931544408204 0.026356331208037011432088 0.069751162387977655443549 0.023591409938441103288920 0.017966362553109016531039
30.000000 -0.020848171591674076463807 -0.016562190384168572893087 0.034469531666755232057753 0.084237621205024648673998 0.027233717326899772176452 0.020359272285359577420172
32.000000 -0.022192327900092859160885 -0.015856660774926662621498 0.038571416980054534784372 0.097203867449157668745308 0.031008696076007719738543 0.022899556400708152154033
34.000000 -0.022866902048378674044971 -0.014659060272471812272355 0.042724152848762228518176 0.110232554944484084646916 0.034520136955886633611801 0.025330622646987932533591
36.000000 -0.024403015352519184105740 -0.013619664009699938844733 0.047702023449733274573781 0.125452843942291419887525 0.038374607026755838679044 0.027913012568685384440226
38.000000 -0.027005754305425073991120 -0.014552467192688538222267 0.052571081057083426935073 0.140244607942216686913284 0.041840171910890552875451 0.030260881786806980570104
40.000000 -0.030773524539359976837094 -0.015468410252828435416661 0.061426432290586210904770 0.158538089519151409456654 0.045853590544748266955022 0.032974762919087567680787
42.000000 -0.034971270086166350576917 -0.018201992452597459681840 0.069563861746737509772487 0.175052681962580808372465 0.049886413927635202270050 0.035794261787121292583969
44.000000 -0.038871505582511282905767 -0.021364599153486877464170 0.075815984521229548565024 0.189233122315665969193077 0.053659777370564036569345 0.038691462133518969568335
46.000000 -0.043865423819442840580596 -0.027157745217628596196002 0.078989491398830796731190 0.200303757275001242943446 0.057567282140478175100906 0.041870376577046404531490
48.000000 -0.049425300937260913114457 -0.034073821749288732418925 0.082319137960266436371271 0.212573814964323898335508 0.061539752685130108544875 0.045155104844162671784424
50.000000 -0.055273188347870275127782 -0.042277983910217808993792 0.083139335972073652447634 0.221742751813742727806655 0.065130164841338045178532 0.048468275091175884450312
52.000000 -0.061817349239358151957724 -0.054527400507989570721534 0.079025732162736672670178 0.227882059562667937946401 0.068161039746052268228915 0.051466400309485675623744
54.000000 -0.069186881265603961121968 -0.069058040862735495246660 0.073608744870597653253697 0.233377494402076418600345 0.071129459771819114610736 0.054342648042990514267725
56.000000 -0.076428459107000717986935 -0.080862794094335374572857 0.072924653879169368253521 0.244549109285662730206568 0.073327491239816161572307 0.056369118931531757288322
58.000000 -0.082601967678989335341910 -0.088608568816859648031858 0.064854437935244688140379 0.233363528887379684251258 0.074844358651369541357568 0.057841652494180828547599
60.000000 -0.086970907342261413730533 -0.093508534904828313760738 0.047707742831422934870478 0.203858151221423616883399 0.075527930392113903912410 0.058658340659028383734519
62.000000 -0.090790376672382142042572 -0.097466397873738661039589 0.027322829703173727444732 0.172318511827669829106213 0.075152216833045779043054 0.058532759484650295767061
64.000000 -0.092622818654458982656763 -0.101280721158076597587794 0.006261772274733620052833 0.140120817818908172114334 0.073201339741664275817534 0.057296575445177432006627
66.000000 -0.092352096237874312101290 -0.099135634071325570704225 -0.002426158206342726199323 0.117139350729522945249172 0.070758218554436688729758 0.055768708846513026511360
68.000000 -0.090461615867666086976406 -0.094341079202973993078629 -0.006858253159395842797619 0.096149602344733048342462 0.067786224494795210837594 0.053937411749005029215631
70.000000 -0.087883538565911870077407 -0.088143218441394791118348 -0.009174587747607706317288 0.078969694985988755919770 0.063808143849408430203773 0.051605195754341130764953
72.000000 -0.084484288047922698194903 -0.080777226563684675908483 -0.010905563348921600008712 0.058969872140750216604754 0.059718879441546982023148 0.049086635685453093580488
74.000000 -0.079412393277594833795874 -0.069735173151378865297190 -0.009509427986430065218859 0.043737831293160014944910 0.056193854421202317495077 0.046758904595489460265245
76.000000 -0.067388423268271852029088 -0.052195668044346520131338 -0.003265699471986587779787 0.030729687340897267333606 0.051579633577492546570031 0.043473432701844054448781
78.000000 -0.056586788749074697080221 -0.039580321807534610267787 -0.001930539959862713397104 0.014172996884531623498771 0.046790858494408726908631 0.039808068135347450533512
80.000000 -0.049101369408030906549278 -0.031185271837546164885868 -0.002302565974270079449809 0.001079825980176231815105 0.038519315709986685913879 0.033572241118887555244577
82.000000 -0.040399286273024921645192 -0.021390471458470533550056 0.000608504971364416148705 -0.004276888047967828884732 0.026700440503212328341442 0.024694892245563569016520
84.000000 -0.031474269872442721396322 -0.011215794445476469365364 0.005829861458920213880541 -0.003948569179847315722964 0.020022748383128907007089 0.019441987893633303624563
86.000000 -0.023874193782275444225549 -0.004646928407806005800751 0.008241705730782811212265 -0.002647300640124726229391 0.014639995159948886865875 0.014986698930811802321639
88.000000 -0.016511764997329300697082 0.000773268996026984438245 0.010915038060525600327466 0.000841058223551409043194 0.010782654120223894231301 0.011527224001354946514297
90.000000 -0.009604091891497223629215 0.005023311320613344822805 0.011897806888389077933921 0.002263241585838973290307 0.007716121357697849035551 0.008652481846085066652385
92.000000 -0.003070797850977799621497 0.007692138105777708047273 0.011833195842096758121365 0.003126943000406123135404 0.004150759383855812112429 0.005415451095369262779489
94.000000 -0.001055869515384642593619 0.006148822642302318938756 0.008944051094346944924540 0.002057764008868068292962 0.000606187425083067055187 0.002429665825981707199394
96.000000 -0.000682086728978244997805 0.004050414863188959990747 0.005814877746203516925561 -0.000053937073511598611711 -0.001866445943125689520964 0.000245106833524827373485
98.000000 -0.000095946858942615119415 0.003361074107185578474510 0.004415520484659977117070 -0.000475322737108175251679 -0.002818491411129535155478 -0.000809732722572936778997
100.000000 0.000136333994274410563296 0.002455473186674718769074 0.002711356041445551253583 -0.001246650372136119634334 -0.002261170455902145309118 -0.000660226129374482891866
102.000000 -0.000053946016158199678085 0.001095537712146021783535 0.000470172633686623015360 -0.002609870028953161728152 -0.001212713880066064540270 -0.000073528716989095527635
104.000000 -0.000004832182458637147267 -0.000131569314344238817065 -0.002258787013939661005024 -0.005160071473122478276363 -0.001294451403703373963683 -0.000236913870766917284381
106.000000 0.000187627898229348157640 -0.000068094299132210228719 -0.002737575394983017551542 -0.005854031044534083010056 -0.001238265677615838118719 -0.000270909145675988203856
108.000000 0.000476901493890312497444 0.000326312293994036515220 -0.002440308573072907244450 -0.005697741084996392826878 -0.001230903521057477752187 -0.000347479270797847075540
110.000000 0.000774227804629815845663 0.000686528048647421971183 -0.002193720024294128472658 -0.005574580189902623994502 -0.001353423432481900418045 -0.000546356840330751067879
112.000000 0.001010212198861645382236 0.000953929703987947859301 -0.002013060621729977940630 -0.005463244888087963324619 -0.001291813382935947437241 -0.000584016755372650307569
114.000000 0.001212952693093331639485 0.001177021967247350890326 -0.001861011505926104918351 -0.005350912528597734363345 -0.001250997373910381609691 -0.000638483775899722637466
116.000000 0.001469979060683862612940 0.001433604595896775064576 -0.001689327317020378497678 -0.005223711886026289469287 -0.001390699875660559052190 -0.000852950691157862385047
118.000000 0.001713500935526794232561 0.001659138849722622231775 -0.001572769114076137328406 -0.005168203423425677019154 -0.001620224446199454958195 -0.001115222949497526091361
120.000000 0.001922937628231998971606 0.001821041723617104193464 -0.001522566780536675160734 -0.005173940449929114067384 -0.001858704586254375209012 -0.001368277540743625866199
122.000000 0.002069176095814237448245 0.001921325865491684383238 -0.001519345316342049848068 -0.005213880960282267496009 -0.002020208831820993929107 -0.001534252732128260632294
124.000000 0.002151451415333956434378 0.001961302980898981234564 -0.001561609264563318562324 -0.005288373332422921513363 -0.002084869212537050504191 -0.001593836194605763312282
126.000000 0.002218473036684646092220 0.001991696320925572839811 -0.001602883651523935104946 -0.005357746470332395462288 -0.002135168547982884551528 -0.001639665828647097773479
128.000000 0.002275954696563642441071 0.002018119171330494572569 -0.001639191490118137826959 -0.005419696961362718487520 -0.002178391797877516234544 -0.001679912678624222556814
130.000000 0.002325551037432901750612 0.002041602418851435306324 -0.001671226821658442071236 -0.005476155245061214288382 -0.002215934881237727020753 -0.001715374581986540969414
132.000000 0.002368752217425530281342 0.002062950146818904283152 -0.001699702680443297394056 -0.005528699462067527235776 -0.002249117991118156859726 -0.001746940907113929755679
134.000000 0.002406810942077542390949 0.002082741213015220412691 -0.001725335822611366110371 -0.005578649962159085672064 -0.002278984800179149460692 -0.001775346868209181760284
136.000000 0.002440767142723466662235 0.002101394593559803222749 -0.001748792731184162143471 -0.005627068617359226067320 -0.002306346431090974466449 -0.001801191353890430144752
138.000000 0.002471483089151295300251 0.002119220483112456074326 -0.001770671008657533811517 -0.005674823051689138926623 -0.002331839773959865861480 -0.001824973527120029399493
140.000000 0.002499679542678574263592 0.002136463500400436268944 -0.001791470538525322944365 -0.005722586083334259624000 -0.002355975934435550808027 -0.001847120823959417026949
142.000000 0.002525967307305421183372 0.002153333847778601557038 -0.001811597935354540209185 -0.005770886228629464563544 -0.002379168903804404662516 -0.001868002922581657671355
144.000000 0.002550843945197492877719 0.002169991960341381958405 -0.001831390850630140558486 -0.005820132228889095607482 -0.002401755268252028438503 -0.001887938274874648028959
146.000000 0.002574734091153970619997 0.002186591159335105321454 -0.001851102733253990814677 -0.005870636016390868086590 -0.002424014763188396537341 -0.001907204562189248079826
148.000000 0.002597989277840641753753 0.002203258983563325008881 -0.001870955968095430093159 -0.005922671641287835346545 -0.002446178938424021891140 -0.001926040757118753065508
150.000000 0.002620903890364440110006 0.002220107931743814291131 -0.001891112778984769399182 -0.005976443678686704612246 -0.002468443609650101955300 -0.001944653853881225021721
152.000000 0.002643720886466709510398 0.002237234264496321817228 -0.001911719795261455738522 -0.006032137919704460074510 -0.002490972855898532754837 -0.001963221097648398284774
154.000000 0.002666647914016512938007 0.002254727443860898763311 -0.001932888808059414964199 -0.006089916959218510950080 -0.002513906737984726493668 -0.001981894896363743316381
156.000000 0.002689861089165997490302 0.002272669920166860407090 -0.001954712588491589169565 -0.006149920297434594874952 -0.002537370012495533851127 -0.002000809607593265725123
158.000000 0.002713506784195632553364 0.002291128504108116709787 -0.001977283445368177485640 -0.006212300510829636863985 -0.002561467733666953575794 -0.002020078498763711993130
160.000000 0.002737714928986936021443 0.002310171051176441309183 -0.002000676691856424858212 -0.006277194198197996906352 -0.002586299521874653537662 -0.002039805310994960256543
162.000000 0.002762598434792939289251 0.002329860879517569455244 -0.002024960036855423788776 -0.006344740574208423619651 -0.002611951444586038933310 -0.002060078870813315029403
164.000000 0.002788257258177632633145 0.002350253088869755802720 -0.002050203345869896966874 -0.006415080985363580748371 -0.002638506290267885346507 -0.002080981048557833511942
166.000000 0.002814785888079973479037 0.002371407793610006992796 -0.002076471935576247422606 -0.006488371572376750752442 -0.002666044542458424326109 -0.002102588666593768317731
168.000000 0.002842267251311220849219 0.002393374110657248317324 -0.002103837800480596199187 -0.006564770997722650311412 -0.002694637920202552338472 -0.002124969366834871496719
170.000000 0.002870782508712345360014 0.002416205404403461501350 -0.002132370194434847314457 -0.006644443879704309274814 -0.002724364744035238320580 -0.002148192759672689928357
172.000000 0.002900413078957685998616 0.002439961704199638745094 -0.002162133876279166526391 -0.006727566156620803927702 -0.002755300958299911236182 -0.002172325034332187390640
174.000000 0.002931234176289136510174 0.002464691779129591329978 -0.002193205990793073174167 -0.006814324170042594663865 -0.002787521074518668415254 -0.002197430010184477176122
176.000000 0.002963321647150678195271 0.002490449908879995184752 -0.002225668897857076538455 -0.006904923048664210125103 -0.002821102628903280826189 -0.002223572122951504928534
178.000000 0.002996757859244341543059 0.002517298326443580779033 -0.002259600913534329843374 -0.006999572009972294603375 -0.002856128761235475575081 -0.002250819352168657774133
180.000000 0.003031623052833085345953 0.002545296443884498879123 -0.002295087966585675123138 -0.007098496606732639969961 -0.002892684817694561767720 -0.002279240462686818631532
182.000000 0.003068000882063826040280 0.002574505357338366298009 -0.002332229788399787628189 -0.007201945095145980899054 -0.002930858363796172601223 -0.002308905248683921097169
184.000000 0.003105979362705334981959 0.002604990957779650465054 -0.002371120835980919903940 -0.007310177431076514062425 -0.002970745985722659642664 -0.002339890126277757633616
186.000000 0.003145650115746178102083 0.002636824134873868002299 -0.002411871583502232102569 -0.007423473517768350640744 -0.003012446968963262711877 -0.002372272999861578437336
188.000000 0.003187111629335699289345 0.002670077704552976591290 -0.002454594366992932184118 -0.007542127775938886960483 -0.003056066920939159211462 -0.002406136425513432774287
190.000000 0.003230466017699890578230 0.002704828076961305217268 -0.002499412826274018725042 -0.007666463042382264461705 -0.003101719243772422997946 -0.002441568770925607936850
192.000000 0.003275820378754243280411 0.002741156629789441318695 -0.002546459554234701151004 -0.007796819362462230340594 -0.003149524832545876756873 -0.002478663739394241886937
194.000000 0.003323294644049273622449 0.002779153420517732099582 -0.002595876181556093943020 -0.007933568373772596424298 -0.003199613602887339033204 -0.002517521892331195040859
196.000000 0.003373011526378675000587 0.002818910581542032403601 -0.002647816566273687981931 -0.008077107144013884187927 -0.003252123105810668379778 -0.002558249696773970838920
198.000000 0.003425102930009191800481 0.002860527665697797095046 -0.002702444724824359413573 -0.008227861067817787352197 -0.003307201881473517506016 -0.002600961741783440386161
200.000000 0.003479710513180193660193 0.002904108826082937595131 -0.002759939696963773468619 -0.008386288887885798293276 -0.003365009459084870348244 -0.002645781028378303440657
202.000000 0.003536984758503548126329 0.002949767334902061652335 -0.002820489925717918362064 -0.008552881255457122494645 -0.003425715308442718164822 -0.002692838288926430873049
204.000000 0.003597089892393602085507 0.002997624671638912836891 -0.002884303632631617618498 -0.008728165987543324427778 -0.003489504825432987195760 -0.002742276224078623366592
206.000000 0.003660198240200350418977 0.003047810842557644936401 -0.002951598142435214386370 -0.008912717866410379760622 -0.003556573634910235436751 -0.002794245513253215858207
208.000000 0.003726495549111715106794 0.003100458953064814948686 -0.003022622424717728850663 -0.009107154439038221693803 -0.003627133538890885740974 -0.002848909017337124521124
210.000000 0.003796182171493716304977 0.003155718412108107686492 -0.003097628971714417537436 -0.009312134400118101534849 -0.003701413334239879882742 -0.002906442838006314047239
212.000000 0.003869470599059848022611 0.003213744089311820675142 -0.003176900150543939156667 -0.009528375517860569049455 -0.003779658484248737439215 -0.002967035482217819306050
214.000000 0.003946591717995425428744 0.003274704694120956268572 -0.003260734764888888279760 -0.009756642875553240418229 -0.003862133557494012991995 -0.003030890580253036217795
216.000000 0.004027790827212147581338 0.003338776259849824713799 -0.003349464388687900355535 -0.009997772705013752495007 -0.003949122075694693791148 -0.003098225776839305146970
218.000000 0.004113332359374284596942 0.003406152293589921435657 -0.003443432434410492997551 -0.010252650928299356092310 -0.004040930622805929961494 -0.003169276765737834202635
220.000000 0.004203498201067207978854 0.003477032232321644687062 -0.003543022989991095883511 -0.010522247762933719869571 -0.004137887443119157501736 -0.003244295585950856316421
222.000000 0.004298592685724433350158 0.003551635236248203760651 -0.003648641486165375095313 -0.010807595681778079874102 -0.004240347826468743482053 -0.003323554901196830099752
224.000000 0.004398940829911585255474 0.003630192819341862553451 -0.003760725382788338271717 -0.011109806106489428234596 -0.004348691609756084180960 -0.003407346466142483886602
226.000000 0.004504889023713499682233 0.003712948568584856050279 -0.003879747216467193792616 -0.011430078889599395650101 -0.004463327374421580118202 -0.003495983905864849528022
228.000000 0.004616809334447230690757 0.003800165745236338665086 -0.004006208662560698831323 -0.011769698938282230002428 -0.004584692756111102135419 -0.003589802981451876377067
230.000000 0.004735098529262676304852 0.003892121745774861692885 -0.004140650114704363254914 -0.012130037122403345903332 -0.004713257675330278020920 -0.003689164293961040824027
232.000000 0.004860179597653301042381 0.003989110562674351261048 -0.004283654522618424685676 -0.012512575031140327902479 -0.004849523767472542663814 -0.003794452724910665156882
234.000000 0.004992505446174551678173 0.004091447184379625075235 -0.004435831774803529817253 -0.012918875146829411279525 -0.004994027678085884158765 -0.003906080065919549908909
236.000000 0.005132557702169591833108 0.004199463715792308739216 -0.004597843161889665630770 -0.013350617813885405638086 -0.005147341287856389488442 -0.004024485229349195405946
238.000000 0.005280852428264169728944 0.004313512408071778006513 -0.004770392579437899606420 -0.013809591782556571160079 -0.005310076262322038602448 -0.004150137878669774883778
240.000000 0.005437941691507958488772 0.004433970885740103409778 -0.004954234440100579311972 -0.014297705884418790769907 -0.005482883023333102838481 -0.004283537564486185680868
242.000000 0.005604420508627385583145 0.004561245801954071088513 -0.005150174470682445694580 -0.014816993026884857712067 -0.005666458523259108870374 -0.004425220183823103115017
244.000000 0.005780928251408837606484 0.004695769346145212130850 -0.005359092953102345506522 -0.015369641697789654041784 -0.005861548790591247261317 -0.004575759975965081743920
246.000000 0.005968160432198818532434 0.004838013181733454189104 -0.005581947784370855890346 -0.015958001348410102288033 -0.006068958451495168673895 -0.004735777233746191715313
248.000000 0.006166875689822780975957 0.004988489619070282481139 -0.005819798396002060295040 -0.016584626785383475150448 -0.006289560894655734507586 -0.004905946450511245934822
250.000000 0.006377909195521401335138 0.005147763400645605745554 -0.006073829641119497108059 -0.017252317334954674760139 -0.006524314447738095538998 -0.005087008885916582782982
252.000000 0.006602180380503466436415 0.005316453993308324979528 -0.006345382526291891249481 -0.017964174798500379820476 -0.006774279178318785323010 -0.005279785903313323827679
254.000000 0.006840708407297523864499 0.005495246341750828662776 -0.006635982779391101475663 -0.018723667621384765952230 -0.007040641540760104490071 -0.005485197747227337113085
256.000000 0.007094621770552829616296 0.005684893086154781983999 -0.006947372018464945987726 -0.019534707646702089561819 -0.007324739116400238655991 -0.005704282281379384825226
258.000000 0.007365165674666612413701 0.005886213266682344125158 -0.007281538430608248436970 -0.020401730700086322112252 -0.007628087737177476589101 -0.005938215055400536748764
260.000000 0.007653704687545951484973 0.006100085568230912726195 -0.007640728492812121248889 -0.021329765071510221885465 -0.007952404591069344233500 -0.006188325639236623432193
262.000000 0.007961717750986058161899 0.006327428595418792788008 -0.008027450856043271201767 -0.022324489096635546231395 -0.008299625549291381187977 -0.006456108550258664487143
264.000000 0.008290778416949539514347 0.006569167667053282290424 -0.008444456028992151919166 -0.023392255495177802226969 -0.008671907405117123407434 -0.006743221896086140816629
266.000000 0.008642531340696585698269 0.006826193715632802513915 -0.008894694320720363325816 -0.024540067865049811773881 -0.009071613094009922315109 -0.007051472447468762165534
268.000000 0.009018659540475378044722 0.007099320898657509627816 -0.009381246031280774180794 -0.025775495441800688745104 -0.009501271642230191272205 -0.007382781216185741769709
270.000000 0.009420849911595250911200 0.007389247784149990429248 -0.009907237212776845783346 -0.027106540674311105365568 -0.009963514945662570523877 -0.007739131594398912690480
272.000000 0.009850764791406892845194 0.007696534939854391896286 -0.010475755308652023867211 -0.028541446536976204650937 -0.010460995063229575063879 -0.008122504194714949901646
274.000000 0.010310028579541875154435 0.008021618464711393822753 -0.011089786434571948653405 -0.030088487144854722532550 -0.010996290677950623301817 -0.008534806625507053087776
276.000000 0.010800234087295716364774 0.008364875764524857398863 -0.011752182406249544327492 -0.031755768656457711296426 -0.011571821357440722349841 -0.008977813455281011961739
278.000000 0.011322986240442610428314 0.008726756539756613112457 -0.012465662636115417902238 -0.033551051527332523272129 -0.012189786493143903514658 -0.009453130851660402483860
280.000000 0.011879991179811791660037 0.009108011344268363007615 -0.013232829320525477459491 -0.035481654577315023535444 -0.012852153974255179844088 -0.009962205974289629895058
282.000000 0.012473183327679123952314 0.009509968518215880517452 -0.014056198962760863002686 -0.037554422578104304508706 -0.013560706559566315654308 -0.010506386544362924032048
284.000000 0.013104895966537195850510 0.009934841903552087127860 -0.014938267138795958965947 -0.039775827006040799516118 -0.014317163247420886668104 -0.011087039120006079648273
286.000000 0.013778051001821748841603 0.010386016240981814015565 -0.015881586467695871234262 -0.042152183376974960982153 -0.015123369346573134128220 -0.011705718045926892870168
288.000000 0.014496353338973776148091 0.010868251450661350898663 -0.016888909922988040723801 -0.044690046535300745333963 -0.015981557373014390610599 -0.012364380468386452355256
290.000000 0.015264433188538626545716 0.011387694897004948038632 -0.017963428327272937951031 -0.047396783820235245665575 -0.016894666345738482138295 -0.013065632091198646491659
292.000000 0.016087871015627298182382 0.011951620686379600330684 -0.019109106422290394328156 -0.050281338174680334507372 -0.017866696827051178897428 -0.013812982144289959879346
294.000000 0.016972980158696113900385 0.012567797405442750896531 -0.020330895584690533706151 -0.053354933742506285843099 -0.018903028747819041605061 -0.014611051838488337689670
296.000000 0.017926022686255281557433 0.013243255557130973951163 -0.021634252927341727362753 -0.056631051502815256404322 -0.020010498971604125106882 -0.015465582765408748822100
298.000000 0.018951424745951201550342 0.013982289315521898714900 -0.023022797597545791720153 -0.060123318189072724737620 -0.021196807708872240222364 -0.016382912843273107067477
300.000000 0.020048961745434575737468 0.014784121803900573607904 -0.024492776555000619204128 -0.063839551056526180894402 -0.022468586279002115274617 -0.017368395946733939522177
302.000000 0.021211556859294308785557 0.015641889120760619352746 -0.026025542773461529666434 -0.067772248694967507365305 -0.023827742307100861079983 -0.018423443393717778282515
304.000000 0.022426633448489250582947 0.016545001821191500368524 -0.027583610900498455043017 -0.071889936231785023235119 -0.025266954351195164418797 -0.019541858358574918513861
306.000000 0.023680811412112409697350 0.017483940048528774646730 -0.029116665030985536960495 -0.076135548685491910569922 -0.026766625977285310455933 -0.020707326073145026351652
308.000000 0.024963244354565629345988 0.018454300580323639707769 -0.030574985187061660268926 -0.080432391399632804929176 -0.028295478561743171719289 -0.021893970337090829653137
310.000000 0.026264641341255157841461 0.019457928740399220435275 -0.031919573114602063645950 -0.084692272442377120045265 -0.029814979747827190931231 -0.023070453875750553118795
312.000000 0.027573594409485310124941 0.020498725718113560562150 -0.033124904813804201264560 -0.088822518037978581695313 -0.031285484182101128136644 -0.024205926052727467362446
314.000000 0.028875337431031589813246 0.021578185311301834731212 -0.034175467938981615723115 -0.092729392922435871504661 -0.032671323014164144193927 -0.025275041551540231715700
316.000000 0.030158707159581635975920 0.022705190522973432015741 -0.035053142311700299926791 -0.096314940348492542043779 -0.033943662686460533695065 -0.026260442577930344365544
318.000000 0.031425169488350786217712 0.023914328814194599215348 -0.035718363873135317021479 -0.099469051693731505570106 -0.035080911266140928084223 -0.027152360008388626982923
320.000000 0.032685937190731734203197 0.025265849905785158630023 -0.036098799788663912813114 -0.102063947863106949109913 -0.036066433915619325323298 -0.027945511034276036138602
322.000000 0.033949309472822646049917 0.026825033986316058204347 -0.036092497509606018268880 -0.103956301355014740783744 -0.036884511567953075228399 -0.028634418704544657013900
324.000000 0.035210028917669979053873 0.028635497374814487814287 -0.035590108944342814523143 -0.105002695326665423936063 -0.037517587965618368062160 -0.029209563761841583762191
326.000000 0.036444331451059006066195 0.030691203216529662489709 -0.034515584090357279145600 -0.105086277387172993824649 -0.037946497982849637653491 -0.029656017084830298830012
328.000000 0.037609282237898597478498 0.032916072080608600736173 -0.032859774252648972503454 -0.104134752509015368615586 -0.038152361148800266466008 -0.029954270288336710265087
330.000000 0.038645641594134201579624 0.035162132679585039740644 -0.030681910488453045110502 -0.102113347070266674565531 -0.038118253648170639935611 -0.030082214283421681438879
332.000000 0.039484057225868687823755 0.037223861606458921724716 -0.028084953654370321124434 -0.098998649644875050257475 -0.037830221360303159516825 -0.030017963809387631507475
334.000000 0.040054683688316473910707 0.038871405019369489886039 -0.025179718243567291574569 -0.094754281041090820947304 -0.037277992574619299437355 -0.029743479270719457019378
336.000000 0.040297733102732401222479 0.039908747256063789587976 -0.022052313354393907052220 -0.089334188593390984056697 -0.036455599586364989539433 -0.029247985087550762428599
338.000000 0.040168659538795600805194 0.040225120653198088993552 -0.018764004173163373323518 -0.082729641580291946034720 -0.035361746928635293119036 -0.028529428808114237758886
340.000000 0.039635329712605346652587 0.039791981940285270358260 -0.015400564394309266061378 -0.075047388916903060018804 -0.034000299606363020010757 -0.027593610722416634511989
342.000000 0.038674807265998187300049 0.038622051910973273503025 -0.012122162690804124535182 -0.066560311509907613136683 -0.032381727414401408060574 -0.026452650215426701946209
344.000000 0.037277078027028530404774 0.036744908144679337691496 -0.009143223312984057743469 -0.057665650107449402395066 -0.030526795357695493682293 -0.025125190951940604838777
346.000000 0.035452317065012367569565 0.034214485827196806921879 -0.006650377842021605936940 -0.048771352526787783987494 -0.028471014472638802444981 -0.023637649435044733037259
348.000000 0.033233914042364760821346 0.031124811449301965915470 -0.004735004720424120655542 -0.040205987987941047001605 -0.026264197037590374800287 -0.022022686609497861554008
350.000000 0.030677228570423622361352 0.027613801263557537224447 -0.003384422318934518329747 -0.032200619331768376429892 -0.023962847155991839898093 -0.020314331503282018198675
352.000000 0.027859997960028359820228 0.023853468930284012217147 -0.002517189727870957054873 -0.024922007176073780049252 -0.021619475877454059908889 -0.018543016636769046184829
354.000000 0.024879498240308120515785 0.020027185094066025233817 -0.002031505715125788303493 -0.018517670294027899213773 -0.019273874806500751466487 -0.016732778944132872811501
356.000000 0.021838331296005129150695 0.016300291520709071085848 -0.001839327044162778227940 -0.013130727020480596409224 -0.016951901951284733399694 -0.014902670290685687132237
358.000000 0.018824730778814663390008 0.012800904207428773912136 -0.001870102657069535939324 -0.008859106615724240962884 -0.014675280281486138833635 -0.013073793436892661157245
360.000000 0.015904259338137258228407 0.009622821519726279526630 -0.002051747181982922687421 -0.005693750297470450208448 -0.012475179024864002652606 -0.011277158260088295319012
362.000000 0.013129240345929217917420 0.006840359691467435242218 -0.002294949529707233926157 -0.003499562571528403928656 -0.010394287988670574546246 -0.009552942962018116240808
364.000000 0.010553497317109760550435 0.004512667890987942000136 -0.002503613382829002458746 -0.002061555370127387577794 -0.008475675934868334010508 -0.007941036133197722224342
366.000000 0.008236377094362571163466 0.002672284692482894408183 -0.002604853137208707793138 -0.001158754397867422505572 -0.006750885966116681319305 -0.006472024914019189160974
368.000000 0.006234580939601446110399 0.001315764237867531527212 -0.002566622436501767197392 -0.000611196292052093820106 -0.005236846298842547792196 -0.005165006161824100758273
370.000000 0.004587658029636068439394 0.000405376632829492519576 -0.002392678028210555932209 -0.000288669596036018416638 -0.003941513763108651577372 -0.004031320495945126675119
372.000000 0.003302225763177136282772 -0.000125227473726627125178 -0.002109321937866308425275 -0.000101976450034962801161 -0.002870333556434117184414 -0.003078622998158201534702
374.000000 0.002347568232385645412702 -0.000362141892841259165157 -0.001753660192894007175193 0.000008635013966797265065 -0.002025907913770958607147 -0.002310613079793381093724
376.000000 0.001668318350421479391577 -0.000396460397446407066240 -0.001364368610614874986753 0.000082848725225456054016 -0.001399862709820301259409 -0.001721612541902353687995
378.000000 0.001201260835276860266391 -0.000312085535316855436708 -0.000978840586577082831521 0.000143005307390966552878 -0.000964306884535256082086 -0.001290632507286001073518
380.000000 0.000886343977083927704076 -0.000179537680864610824831 -0.000633800647491632803028 0.000192489586881325498973 -0.000675220179089172883695 -0.000983898704520102607499
382.000000 0.000673641668132132190490 -0.000049470153919358641895 -0.000358117816851325702476 0.000222470113624509055732 -0.000487439603200368878552 -0.000766012999552795510738
384.000000 0.000527084894812204730538 0.000052160541947505415644 -0.000162009165629574549512 0.000226055071008228312566 -0.000366366199120973692459 -0.000608963316726653385198
386.000000 0.000423091118222933672364 0.000119460054352719575207 -0.000037668965286807767207 0.000204808217488909973577 -0.000288892503274244827078 -0.000493283576805173679114
388.000000 0.000346481234280102742135 0.000156486185162989032511 0.000030933806255145366638 0.000165857481280926429218 -0.000239293369340175130161 -0.000405413617931769801935
390.000000 0.000287321128804858213785 0.000170008397383833659636 0.000060087658142959099483 0.000117216713202714385689 -0.000205988079001197802636 -0.000335542062893958575875
392.000000 0.000239267179599921372317 0.000166731434790310512322 0.000063529305916235981615 0.000066083444281835615692 -0.000180454506186236620507 -0.000276865910784548311524
394.000000 0.000199010603207059152053 0.000153044190346561152045 0.000052400185351250230564 0.000018227176089165550611 -0.000157707718977101798985 -0.000225845462558449947606
396.000000 0.000165448079361701135687 0.000134699482818129341339 0.000035179507712748805991 -0.000022458479518400831048 -0.000136486420937972880796 -0.000181980969778387005045
398.000000 0.000138390326538622918107 0.000116093815661992037845 0.000017639109788228470786 -0.000054076625236065878398 -0.000117706331735207040626 -0.000146075571395415154587
400.000000 0.000117366702381633013002 0.000099631218769030664034 0.000002623095335720845415 -0.000076841548101085749550 -0.000102238904723167835210 -0.000118231967775795116936
402.000000 0.000101349207314578652591 0.000086067781754123798125 -0.000009008684557872082701 -0.000092066860544134468424 -0.000090008058819311166383 -0.000097355750220419620070
404.000000 0.000089179853419916218886 0.000075251167943691466759 -0.000017457867838034886508 -0.000101473212708244419191 -0.000080408272343039186177 -0.000081874055698316221307
406.000000 0.000079847813950858058537 0.000066762132047973882644 -0.000023228681629342181199 -0.000106547839742810425347 -0.000072779991205138830010 -0.000070357855440492046879
408.000000 0.000072601976206227621384 0.000060130029267005318341 -0.000026880269144950348772 -0.000108456289584997006776 -0.000066632205696362580027 -0.000061739703179379456436
410.000000 0.000066890028152551746655 0.000054962977926584078553 -0.000028911002004515702363 -0.000108160996623706448494 -0.000061618788209353910911 -0.000055244090683956547901
412.000000 0.000062312019456307573065 0.000050917840228364424503 -0.000029760482944223711448 -0.000106333068385288913717 -0.000057472296452673974504 -0.000050288923492233520893
414.000000 0.000058531784083727577610 0.000047676593151259204402 -0.000029761316744852756927 -0.000103519434001613384248 -0.000053996284212935761278 -0.000046441607488833459481
416.000000 0.000055333060890606007066 0.000045004750393011323730 -0.000029218592724181128195 -0.000100087344418716344763 -0.000051019656901174102390 -0.000043368135825745442061
418.000000 0.000052536180676108087354 0.000042692358929627837892 -0.000028370248635309512826 -0.000096337294245160540922 -0.000048397120100751735801 -0.000040818235180605622709
420.000000 0.000050012636287936044653 0.000040640766994712984985 -0.000027288464612832904094 -0.000092349186812944433333 -0.000046021794544250039984 -0.000038617805943294733451
422.000000 0.000047681791070489326460 0.000038749072351259218237 -0.000026109031959777154229 -0.000088263142444013336241 -0.000043822749985375183176 -0.000036655377904356164717
424.000000 0.000045500154010777927769 0.000036963652874163983658 -0.000024915735490156545179 -0.000084196825424575225875 -0.000041766890998172269162 -0.000034868567421275302291
426.000000 0.000043434730649988690645 0.000035266433706537200245 -0.000023718027424454792446 -0.000080201124348942303050 -0.000039825279103569844591 -0.000033210967813738285126
428.000000 0.000041451320073556092527 0.000033606161806647585433 -0.000022603667931405382267 -0.000076365981103574079206 -0.000037972434603514954813 -0.000031648750113889025342
430.000000 0.000039535147802840387842 0.000031994811003109692525 -0.000021525703665764123310 -0.000072649280567459891792 -0.000036202209376471025421 -0.000030168567246332360761
432.000000 0.000037692629580749137863 0.000030444217388872530131 -0.000020489512235939472720 -0.000069046105652986470755 -0.000034503146278738428497 -0.000028755250025928466779
434.000000 0.000035934514601666968500 0.000028966036936473936420 -0.000019506057596038065894 -0.000065573686902416691564 -0.000032884149468003538318 -0.000027411227253877366779
436.000000 0.000034233720077833720570 0.000027518777843782555155 -0.000018606186874069591670 -0.000062323932130396787516 -0.000031335617170918087697 -0.000026125016098798283990
438.000000 0.000032605580115111632141 0.000026165644878279416046 -0.000017701935788515811397 -0.000059180180845055896063 -0.000029850281247187208412 -0.000024891796114067484322
440.000000 0.000031036028739070502778 0.000024840276427311856500 -0.000016880627037639382325 -0.000056272877513863174461 -0.000028423809707231167395 -0.000023707068769108146722
442.000000 0.000029527517131448394872 0.000023583282046560949575 -0.000016095822285546654274 -0.000053517750693961612838 -0.000027048710388695431723 -0.000022564804199476098609
444.000000 0.000028087746859263277606 0.000022401589836789783614 -0.000015357663961597086620 -0.000050941662351611944877 -0.000025739328687497706156 -0.000021477403426371893114
446.000000 0.000026694473644902713157 0.000021264038633671045647 -0.000014662202559254484756 -0.000048518689565190706401 -0.000024485248466970803996 -0.000020434686730738699261
448.000000 0.000025373946578702166217 0.000020202587708152886279 -0.000013988397648708666431 -0.000046201510562871366211 -0.000023285338245186028966 -0.000019436743108844147811
450.000000 0.000024121602154112486380 0.000019232219470369047988 -0.000013286842986209824744 -0.000043976133466652498152 -0.000022146664548096165988 -0.000018489389245347653037
452.000000 0.000022952516493780656537 0.000018296649684643555831 -0.000012653553461217800037 -0.000041880921469754197933 -0.000021062530619368186312 -0.000017587542418498659401
454.000000 0.000021839239314971616398 0.000017417962268007547763 -0.000012027421231118105055 -0.000039832832406138559398 -0.000020027873450577009180 -0.000016726182733509231112
456.000000 0.000020771373029239433532 0.000016578903161810787267 -0.000011431392784648425340 -0.000037902825460722152663 -0.000019048960501025176189 -0.000015910237343582733452
458.000000 0.000019767079225522747593 0.000015811725152489296552 -0.000010827404152982147945 -0.000036041304924296786434 -0.000018124297858650489023 -0.000015138176291558238585
460.000000 0.000018841710709062501868 0.000015089941333725795478 -0.000010282640106482585196 -0.000034245500737479355206 -0.000017251324477652728740 -0.000014408840985439937824
462.000000 0.000017930964218530261623 0.000014385089743832122082 -0.000009761682023900660057 -0.000032610888500325418179 -0.000016415212261976175280 -0.000013712578496581313348
464.000000 0.000017071556649573487818 0.000013703674224311991316 -0.000009293418063777083928 -0.000031044247958315287388 -0.000015618378514161652878 -0.000013048194010764552206
466.000000 0.000016234382701973356668 0.000013014475342152882875 -0.000008867615609816702178 -0.000029513703939065028420 -0.000014870469445622999706 -0.000012423153865022175063
468.000000 0.000015452284105302628456 0.000012397941614771679089 -0.000008390808402780920304 -0.000028024911506520681307 -0.000014147949391599822796 -0.000011821291869051401188
470.000000 0.000014703086568809896770 0.000011756642001468839951 -0.000008007572342820352298 -0.000026650392108968843486 -0.000013462659453295805991 -0.000011248249710371220926
472.000000 0.000013977154794807861808 0.000011185904634690213688 -0.000007596039317884501444 -0.000025320491112022612415 -0.000012801198223542380978 -0.000010695948040342896873
474.000000 0.000013303191078420743278 0.000010625613909418515503 -0.000007235071628773963204 -0.000024085902710005955440 -0.000012182010405606143500 -0.000010180450591737130636
476.000000 0.000012661420439293731273 0.000010141076064870305790 -0.000006856981325984324782 -0.000022867082692481347953 -0.000011587938393682982447 -0.000009682122260815793398
478.000000 0.000012024105598082836409 0.000009619978881116878004 -0.000006545987946107340026 -0.000021749239078092217904 -0.000011022897138366702109 -0.000009209053504521586323
480.000000 0.000011426643330975638226 0.000009128603364634443841 -0.000006272694467190460056 -0.000020745345712794660098 -0.000010475890351046186359 -0.000008754078422821667317
482.000000 0.000010884637368915922102 0.000008708242049194266448 -0.000005948159740735472921 -0.000019768109081382680912 -0.000009975519191323045114 -0.000008334974224436488273
484.000000 0.000010345607877001976321 0.000008247934048860042631 -0.000005705647372915985192 -0.000018820359448103269950 -0.000009483196942314711095 -0.000007923783819309286578
486.000000 0.000009862700400784712711 0.000007872958545301646769 -0.000005374113951978520655 -0.000017880405565405736945 -0.000009027263234975150269 -0.000007542260710059303075
488.000000 0.000009368829471739607839 0.000007480848644479686908 -0.000005085024643457138754 -0.000016911173148369456687 -0.000008582146612876270469 -0.000007171220138767450859
490.000000 0.000008913006953778802922 0.000007097132304750507261 -0.000004897838594984252243 -0.000016156244061689897383 -0.000008167317275389239395 -0.000006824172400108502874
492.000000 0.000008477405331620015727 0.000006757088076073123097 -0.000004636745219655843880 -0.000015404467799635051346 -0.000007779897539534832176 -0.000006496468009322827836
494.000000 0.000008055290218505155699 0.000006404822389060022315 -0.000004407904634497699883 -0.000014630711393398391452 -0.000007408632297931975365 -0.000006184616126028956130
496.000000 0.000007679082869940807431 0.000006122259888281469043 -0.000004173981368453183317 -0.000013942761036213917588 -0.000007060919217794456089 -0.000005891849468936838289
498.000000 0.000007290285342847690965 0.000005816536538776021416 -0.000003987548910411548016 -0.000013257248124609600687 -0.000006720081910096279760 -0.000005605572293835461982
500.000000 0.000006933735082472672538 0.000005491629702244197513 -0.000003873323444615675808 -0.000012696918412029828920 -0.000006386303351281586082 -0.000005327141107087528501
502.000000 0.000006605319311017749951 0.000005234470074639203352 -0.000003716684145425539089 -0.000012129099243971078756 -0.000006085850212083854421 -0.000005075136611152965518
504.000000 0.000006291384016773073480 0.000004993995049632300035 -0.000003498810728067173757 -0.000011497556331132322561 -0.000005804461502052502040 -0.000004838021705832206857
506.000000 0.000005995861060838846629 0.000004768021219934337398 -0.000003307751720571918871 -0.000010915804946829732829 -0.000005536812355423299745 -0.000004615239975927460567
508.000000 0.000005715804471990972004 0.000004531719412167421000 -0.000003207128790308788618 -0.000010454016083659738916 -0.000005273444937372903760 -0.000004396314131880199648
510.000000 0.000005434619001820609991 0.000004307833293927843314 -0.000003058565246378923323 -0.000010004431769998063821 -0.000005026805721154116574 -0.000004191525009456361023
512.000000 0.000005170146289381728469 0.000004117326488522051713 -0.000002902363069219394364 -0.000009490803652098955422 -0.000004785494990579893157 -0.000003988886023694832832
514.000000 0.000004931239483545089075 0.000003942147438446855881 -0.000002716158510177182338 -0.000009014848944038616392 -0.000004561493505256498432 -0.000003800971008792982483
516.000000 0.000004710038231899848089 0.000003770425561685573868 -0.000002548553070100101778 -0.000008519102875460773898 -0.000004352430883041005227 -0.000003625889405287786098
518.000000 0.000004473135280430107735 0.000003564520855478603979 -0.000002464843689849288254 -0.000008148676218461590955 -0.000004150632964919571422 -0.000003455200485753184167
520.000000 0.000004246852861391001364 0.000003370704097485924709 -0.000002348903447556039840 -0.000007755788088255759395 -0.000003951565008883876032 -0.000003289001227759329125
522.000000 0.000004066552554952856798 0.000003217023613460285612 -0.000002280310601147041768 -0.000007452994152922870781 -0.000003768064385192366534 -0.000003135388025711569247
523.980000 0.000003889522381553787142 0.000003074003575483115481 -0.000002266107446052424041 -0.000007220489701127021444 -0.000003595995802834124355 -0.000002991094182303843326
