0.000000 -0.000000000000000000000000 -0.000000000000000000000000 -0.000000000000000000000000 -0.000000000000000000000000 -0.000000000000000000000000 -0.000000000000000000000000
2.000000 0.000308424182138428539315 -0.000270356838997301020776 -0.000433599741160005012174 -0.002117209727550736341611 -0.001369912996345003936005 -0.000357152628406420932696
4.000000 0.000721615854785039403420 -0.000033667271727989557225 -0.000655331616297835889244 -0.003972600602684433351852 -0.001943080471076352646470 -0.000388182398648613785196
6.000000 0.001298048408837791743015 0.000599575483176693403188 -0.000235826624291481996192 -0.005185755419188658836560 -0.002415206817798124395297 -0.000519419351475489902287
8.000000 0.002222116663345592105921 0.001537446556008922318379 0.000472195151498937758759 -0.007223849668088461357940 -0.003347275468546156117211 -0.000787650041632736953520
10.000000 0.003743078419535940219720 0.003169912071364157195308 0.001601916068904551872926 -0.010678126303967777621651 -0.004953882640270400664062 -0.001168073443899836534599
12.000000 0.005319132468777905235757 0.004690200032684308656394 0.002397423319400943716312 -0.015232612641034069117518 -0.006901837059803777457700 -0.001598449787235275282304
14.000000 0.007330559245654466767050 0.006468949583358587010484 0.003069042624107855797566 -0.021916592278979588059862 -0.009864153988177191620390 -0.002376982273442228201649
16.000000 0.009850424867990198798950 0.008790337989593119752407 0.004072646719735399829798 -0.030111227722060818212668 -0.013556460248075538621571 -0.003416380867147513628046
18.000000 0.012658543536021839293060 0.011297717110274088994637 0.005015170653566084282837 -0.038852403790249630255449 -0.017554432588661329772695 -0.004638509405943944986783
20.000000 0.015326711169201865866962 0.013211436309026731300564 0.005405651080269355431007 -0.047802344389649684130994 -0.021520371458017988064437 -0.005837710030460932682239
22.000000 0.017781463713229795492454 0.014967061328812789749998 0.005524006624920966244952 -0.055353732085201154400345 -0.024918113252916877092824 -0.007045781667699571940156
24.000000 0.019809370073728193445417 0.015834542609948092095618 0.004927105437737609380799 -0.062237245605488121513726 -0.028334087987012316484092 -0.008363585081428617090671
26.000000 0.021627294740975133713334 0.016384849937701957689473 0.004135260925200624423925 -0.067498119861643571248955 -0.031299246120866118514581 -0.009756384254237531958309
28.000000 0.023617032719384443983923 0.017436672573115739176552 0.004347559274905632084596 -0.071310695718874272941434 -0.033635440741953827326061 -0.011016321286518708857938
30.000000 0.025423899771006761710845 0.017661460798497650298566 0.003357017436788789065821 -0.075502242280917078454117 -0.036263609030071919381299 -0.012564706540130055403837
32.000000 0.027424949807489211461853 0.018552747554098511506560 0.003149179048205741696109 -0.079135517309720640466431 -0.038456948777959354401901 -0.013924316832570586208173
34.000000 0.029212184618285074594324 0.018452408730843205403316 0.002025582818751317775580 -0.082526556503589226787554 -0.040939274460606522865191 -0.015554706477050601887147
36.000000 0.030967653622146623648703 0.018510024171216145350005 0.000794383920665479685563 -0.085841485815215723409466 -0.043483118966712371034067 -0.017250526234545815462695
38.000000 0.032656619287400538709232 0.018561419287944910111454 -0.000362049630447109965694 -0.088517498914537862120255 -0.045839810138260599081672 -0.018919392734540269040977
40.000000 0.034324655927173264302610 0.018610241305219130808490 -0.001652686242823200131122 -0.090876323060096450556777 -0.048360382061250484220238 -0.020942934677556524630804
42.000000 0.036029601179273056110741 0.019045879718082261988776 -0.002456833563767633985681 -0.092723476675557345294543 -0.051069986332314527832654 -0.023284529468242540217737
44.000000 0.037392895275027468460216 0.019150869125941508142041 -0.003639257865400027588954 -0.094461821161673426017202 -0.053458405277977183445159 -0.025463245628652618479659
46.000000 0.038475467025949269816998 0.018751292985837539339933 -0.005256643714713415266315 -0.096344250083978025256393 -0.056232626338652419439867 -0.027861056302758788888463
48.000000 0.039712349706124819292974 0.018934843686214192920447 -0.006343205662439533980279 -0.098222948140755633739118 -0.059102484691950465944821 -0.030318072891277504654628
50.000000 0.040795708199387506476263 0.018907197136731668241083 -0.007901985754903055256260 -0.099949720494538707438181 -0.061873487278588754079145 -0.032697307083031999785927
52.000000 0.041612681916400197368322 0.019126575225603872215663 -0.008593832509784925244301 -0.100753471527721433220748 -0.064016017822705426065788 -0.034724121469564307729261
54.000000 0.042075444770150176310164 0.018728193100832450646021 -0.010626013768083799812536 -0.102435887341761830415798 -0.066484210407115995611349 -0.036657232533077024894119
56.000000 0.042297033977699433071606 0.018728343639849293067456 -0.011748364460434495074037 -0.103186388251630858925445 -0.068112568664608783008951 -0.037897389148065264985465
58.000000 0.042746034906201713088336 0.018501287394553537352104 -0.014112166624873752340807 -0.105140986771204120175938 -0.070189737509444349861099 -0.039035127082282440602601
60.000000 0.043218623952101284380056 0.018716234583140745756369 -0.015310836950137247935988 -0.105775468400982855521342 -0.071488922545584143719566 -0.039826148829720069144411
62.000000 0.043101132982901323165148 0.017920100617137613152607 -0.017701390651797994923999 -0.105743398524649839798073 -0.072357287892497609838038 -0.040427483647404782729495
64.000000 0.042878411993151843706329 0.017749739279855715479162 -0.018327727972706615161558 -0.103096268241923194608489 -0.071554306064995840119813 -0.040389437163894356674909
66.000000 0.041873377196305544556409 0.016337824994792665700416 -0.020290008021156515777284 -0.100185112141660120910203 -0.070085296906534713667902 -0.039894125031746323351012
68.000000 0.040851304711275585046515 0.015475402811495017965648 -0.020785253165200984898364 -0.095970382114052454891606 -0.068039313430626552348102 -0.039218253407345346484014
70.000000 0.040037501531341494753757 0.014633677180633124226272 -0.021424420986079814599456 -0.091337091104985251854842 -0.065715496233585884988671 -0.038414382355695261828110
72.000000 0.039164059188248320775294 0.013910780948541732332524 -0.021631890326067396146392 -0.086590004636101738921816 -0.063380092642463720098434 -0.037556626182325726637234
74.000000 0.037382453207458053723311 0.012246794650289959116574 -0.022904164550748000450664 -0.082655566211779038510166 -0.061106886671891832985004 -0.036542074093020668335008
76.000000 0.036025320263974924817063 0.010902173822470441824639 -0.024419445203484407835859 -0.079460646871178486350118 -0.059131225968919003121993 -0.035617097222096057163032
78.000000 0.034394492952326854995349 0.009515541899826304370058 -0.025395637883895608166718 -0.075706810137568761320814 -0.056737852114839282258174 -0.034418416245457800206609
80.000000 0.032518015265527999702044 0.007742112850075526242488 -0.026830551304847703730783 -0.072310041777679717744931 -0.054526977304526574874544 -0.033263063322640576413569
82.000000 0.030663808433074767750837 0.006119928597052300134340 -0.028078371537077057712439 -0.068765172733255566783761 -0.051624666703558738656277 -0.031621515502779147521739
84.000000 0.028832418112185301262151 0.004418798636867083198809 -0.029410933185786747312562 -0.065314934192401363777236 -0.048550436232085415755311 -0.029819077695407265882199
86.000000 0.026440623838361806963171 0.002401613610224357080875 -0.030624044455520919166824 -0.060966305796537938188617 -0.044280156340625494160168 -0.027049124129563655721809
88.000000 0.024425187573822768061227 0.000828449083533743056013 -0.031323260249882335648497 -0.056621572080458572318040 -0.040226362976144326710770 -0.024518349893303176267878
90.000000 0.022369929976410362487682 -0.000923898505839414554454 -0.032358485755352855983702 -0.052582041657932621081528 -0.036414035969991882801811 -0.022193890836987827108739
92.000000 0.021232650783194272070542 -0.000503691997256998022503 -0.029933744846297530295409 -0.047227119078180959665936 -0.032575509119693098203374 -0.020147425410017641422833
94.000000 0.020726096927465055552720 0.001215764415368333949477 -0.025732341483221676803339 -0.041617924282003296299060 -0.029025796808562653872343 -0.018397910596809660677131
96.000000 0.020636290657255456498786 0.003678602922268590924570 -0.020686642242097454807981 -0.036014585247616172358764 -0.025613896394135322182040 -0.016764797821090780122200
98.000000 0.020813415591737563503649 0.007342844020883771555264 -0.013217700986373547705766 -0.028728843692200346088272 -0.021940323920086268749685 -0.015232141071012601438173
100.000000 0.020503498722035266854657 0.010542494037059360265096 -0.006152715460085257659362 -0.021819142107837651706204 -0.018258426147387315369164 -0.013509861115545727244802
102.000000 0.019309312578850896385818 0.011447217447401104861715 -0.002643643740778818269216 -0.017349917144200682067590 -0.015468924785728683721220 -0.011981362614444976411043
104.000000 0.018020420585515815187216 0.011461927608663166969216 -0.000778086034059690062961 -0.014117596297723515597067 -0.013179398547241387776308 -0.010603292306398264671641
106.000000 0.016585247546862687956226 0.010942720612694925574893 0.000296990297713299394259 -0.011541324539617762306998 -0.011324916632383592515754 -0.009444192679247885927052
108.000000 0.015332247631319398037397 0.010240594496086698195203 0.000776656861692617784751 -0.009638814337244016455797 -0.009895633223782370271882 -0.008518343259694026101125
110.000000 0.014055774982854403812316 0.009330926631104820984097 0.000737631327084291277783 -0.008311206631939625430472 -0.008730846699799052479385 -0.007648445805135235635308
112.000000 0.012578127701056594431317 0.008209677411610468225622 0.000533669931771374971008 -0.007069425596836586937755 -0.007621105981863053949188 -0.006810175761800916528765
114.000000 0.010792678832931244803373 0.006723949875740552889480 0.000068506556565770004331 -0.005847462889033584049203 -0.006473889078816423905960 -0.005925015412496990180324
116.000000 0.009252472787564275380490 0.005628838229376305866969 -0.000044369691702361710515 -0.004598722048369178853899 -0.005381951608924894284169 -0.005097604332396261060667
118.000000 0.007703416747874092772308 0.004504485896690408469611 -0.000195091482578936439678 -0.003373499725453478394893 -0.004275657421348891956692 -0.004240623717508865478387
120.000000 0.006225841928266231430078 0.003589679140108893370953 -0.000124105995694262315589 -0.002082368286742083875879 -0.003156831487716376533070 -0.003376690440746613584844
122.000000 0.004924975549398046860416 0.002863797523715060425187 0.000033659310351087396579 -0.000886195740486026548900 -0.002118390460263759340204 -0.002563058203473644186543
124.000000 0.003712746458336817559354 0.002267627731793923993170 0.000277109634061829888507 0.000290357171885546525274 -0.001104053238416477988534 -0.001763476379827057542379
126.000000 0.002621566578751025923533 0.001658665174120980793926 0.000355757561694059159900 0.001200129034190243167493 -0.000260821086545637954249 -0.001072733345728598504040
128.000000 0.001654215160193097181041 0.001141605879249421280977 0.000463596673687118390750 0.002014636901269238698081 0.000460517001541437464782 -0.000495099382378781996406
130.000000 0.000751799947176203615593 0.000606434431868597945657 0.000469491860956031939380 0.002675968511261395555573 0.001075710479274836735633 0.000012430883746748728818
132.000000 0.000030020676909075250804 0.000212559560460926199590 0.000517229058003168583671 0.003234931372956373167582 0.001588925957486803097751 0.000433401233624276370927
134.000000 -0.000563947308542568420328 -0.000107770889294141845459 0.000567806631503365785707 0.003709034806985927676393 0.002008792689431906225428 0.000772428614028195935533
136.000000 -0.001072720785771502649553 -0.000396980894611392355099 0.000577885967721398661687 0.004074471008471685674890 0.002342357085160175125121 0.001044665173074917205107
138.000000 -0.001391021358935600957252 -0.000551643931377429272422 0.000630489967410342942028 0.004361607442675746737493 0.002584500355605060147035 0.001234103601714534384493
140.000000 -0.001706610645173480510228 -0.000756849894832020307286 0.000596417502949027713600 0.004549731266802428675255 0.002755984105557223937111 0.001370017143536082174921
142.000000 -0.001777880365330274624325 -0.000789253661013446196001 0.000622516721444779392441 0.004656913328571982493842 0.002831614332601052694965 0.001418070202193885990735
144.000000 -0.001838550821040079016541 -0.000819333592442233289363 0.000641183957378101956545 0.004750890296627951168984 0.002897736671641211979311 0.001459897146608098855713
146.000000 -0.001900795711633106871430 -0.000851653127653756122396 0.000655768403604430950328 0.004840668201464493752839 0.002961923200852398067873 0.001501267561818752900929
148.000000 -0.001961643202923740638560 -0.000884017160927086289440 0.000667570668601231488083 0.004926090333431362537631 0.003023132584000670294855 0.001540870639266668420259
150.000000 -0.002019782482740171969393 -0.000915419769570114446461 0.000677286774939447281524 0.005007336082905115316743 0.003081076355312437758949 0.001578201706371110688357
152.000000 -0.002074542304584434896514 -0.000945291656431611012658 0.000685437155109907018599 0.005084782255969175039645 0.003135777357959081395461 0.001613078354409869285060
154.000000 -0.002125661232154372158598 -0.000973354302016518299102 0.000692417931390430026369 0.005158924243931301868715 0.003187443695915222890980 0.001645514262350178955399
156.000000 -0.002173174107943463134740 -0.000999534663872579578342 0.000698535932046156528286 0.005230332364633106558005 0.003236409795840467298889 0.001675660866825841831262
158.000000 -0.002217331061426230758016 -0.001023914114113672838707 0.000704022012858390678833 0.005299617779264348751966 0.003283087380990190422281 0.001703759208763776233919
160.000000 -0.002258515373134878899408 -0.001046670936513187074104 0.000709051803868832649508 0.005367399578410697938424 0.003327927034460687830825 0.001730102085724258059382
162.000000 -0.002297181055784996983604 -0.001068035319398281859232 0.000713759954952089418004 0.005434280991647458258775 0.003371387078699369932444 0.001755003469872421124898
164.000000 -0.002333809108897445805386 -0.001088266433493010210826 0.000718245075521553371853 0.005500832442224976026601 0.003413911211743450406508 0.001778775784466619935831
166.000000 -0.002368872332704997397956 -0.001107623142542732462903 0.000722584574232172302533 0.005567585789065868095982 0.003455916722019308339603 0.001801716374127877197397
168.000000 -0.002402817245828195707319 -0.001126353675397536802452 0.000726837530606670506259 0.005635028587536026166427 0.003497786773604096271367 0.001824099563556471053499
170.000000 -0.002436051198614026108702 -0.001144686859704255712036 0.000731050836093770405391 0.005703605645742609170368 0.003539868274260420197980 0.001846172424392183378933
172.000000 -0.002468942264301964006901 -0.001162830992264635588535 0.000735259811200285806274 0.005773720605658616555900 0.003582472805944381284704 0.001868154768918535088562
174.000000 -0.002501816363681055779139 -0.001180972503518423538313 0.000739491268616635335012 0.005845742676043329082158 0.003625879777968389616749 0.001890240629271710106132
176.000000 -0.002534960236378436520405 -0.001199272923728545835881 0.000743772035738726831205 0.005920015702717123899645 0.003670342347187259893215 0.001912601353840556132196
178.000000 -0.002568631187695393988668 -0.001217884185280654991620 0.000748113286103105627929 0.005996853999667485848879 0.003716088092947939913041 0.001935387410745332712955
180.000000 -0.002603053688144171557567 -0.001236934946256414450880 0.000752531297229843245192 0.006076558996039638921305 0.003763327061707811508479 0.001958732836559410207117
182.000000 -0.002638431141462062225894 -0.001256542983082730054190 0.000757038824534452784061 0.006159421301920566665933 0.003812256524362994409422 0.001982758820969134951062
184.000000 -0.002674947555520119923944 -0.001276817790988652150802 0.000761642570054051363734 0.006245721467291344593253 0.003863060353690691076101 0.002007574470821647111274
186.000000 -0.002712773011167089742823 -0.001297860198923507296306 0.000766348832365156213201 0.006335739805917891404041 0.003915918127524887354385 0.002033282003927282949318
188.000000 -0.002752067663803238906778 -0.001319766260737745625087 0.000771162239249301943028 0.006429758871019594819451 0.003971005912863140654978 0.002059977848569898104675
190.000000 -0.002792984829456379106821 -0.001342628239069992976060 0.000776086969924116875687 0.006528065573338736292397 0.004028497881551048979965 0.002087754304626815351348
192.000000 -0.002835673737222110975253 -0.001366535635011532391625 0.000781128189574595353621 0.006630959172847446930765 0.004088572469301985680412 0.002116702571670141166255
194.000000 -0.002880284704161904883041 -0.001391582892056770180689 0.000786283132079910302391 0.006738747107261792990140 0.004151410821846804495572 0.002146913194774626842259
196.000000 -0.002926967619771640195803 -0.001417861615545643830943 0.000791554304830868532203 0.006851755894947074952694 0.004217202081550865643000 0.002178478455402370513039
198.000000 -0.002975878063278715977835 -0.001445469763217854591505 0.000796939349461491843007 0.006970327510761966695318 0.004286142339961579450502 0.002211492143380691666188
200.000000 -0.003027176707342827451791 -0.001474507192799568962641 0.000802437642908393001032 0.007094826792182186425695 0.004358439846642561156520 0.002246052783607239543978
202.000000 -0.003081030552885455960771 -0.001505079038561890755407 0.000808046543168627461745 0.007225640252679839913019 0.004434313433561500560065 0.002282262483193716988417
204.000000 -0.003137616672656729551599 -0.001537298372170612346943 0.000813761127729237970264 0.007363181474456932835981 0.004513995853331567546796 0.002320228813909833761459
206.000000 -0.003197122738751696693210 -0.001571283521512696883943 0.000819578563855038132700 0.007507893712190202503698 0.004597735621663390399860 0.002360065932925315291407
208.000000 -0.003259748262196024686660 -0.001607162926514666724531 0.000825490607644572584045 0.007660249010272025468882 0.004685797288824735187807 0.002401894944541461442145
210.000000 -0.003325706366342024312283 -0.001645073149614356862458 0.000831491192082053237090 0.007820756582507181267627 0.004778465046759911884211 0.002445845259001004981525
212.000000 -0.003395224544524542281687 -0.001685160671385471957071 0.000837570628008127318447 0.007989960457767161794429 0.004876042414124642267181 0.002492054813072314828348
214.000000 -0.003468546957535989603422 -0.001727582863842346905595 0.000843719660733853742303 0.008168444780732871113305 0.004978854164262126041907 0.002540670892952466824316
216.000000 -0.003545934685022538411514 -0.001772508245267414780932 0.000849927337314013197148 0.008356835826245571918758 0.005087249340448984392948 0.002591851893506026162373
218.000000 -0.003627667729242668205603 -0.001820117340349606573080 0.000856181953665712176284 0.008555805176948278606419 0.005201601649800500007381 0.002645767281727385601686
220.000000 -0.003714047301748903042590 -0.001870606599576220404821 0.000862467743845313477430 0.008766072232084807722141 0.005322311640826696971240 0.002702598868727817179453
222.000000 -0.003805394969708593075342 -0.001924183557147588147576 0.000868770670494466851208 0.008988407245189728236867 0.005449808138778830871041 0.002762541498267804054856
224.000000 -0.003902055383433119650077 -0.001981071086821800230487 0.000875075458783985634693 0.009223633080049080390506 0.005584549217858612510379 0.002825803591811566328057
226.000000 -0.004004397820523976705975 -0.002041509307757006889961 0.000881363375920249489566 0.009472627363713272130585 0.005727025430329363460402 0.002892609423437620015662
228.000000 -0.004112815673303062309618 -0.002105751738083796661960 0.000887617767693869136846 0.009736324174307366477454 0.005877759087327003896528 0.002963198439477282477433
230.000000 -0.004227728357339686528216 -0.002174068460849891588904 0.000893821131249927423000 0.010015716595822876308630 0.006037306579648603517552 0.003037826648246382335583
232.000000 -0.004349584555946602211496 -0.002246749832308233326555 0.000899951516720543919642 0.010311856088600452815984 0.006206259856053042249513 0.003116768217474373374454
234.000000 -0.004478861899946212817014 -0.002324103603638252336927 0.000905988049473621854558 0.010625858359862190571921 0.006385248160047834846409 0.003200315941248345341652
236.000000 -0.004616071272833519034684 -0.002406461364003893363406 0.000911903516670154400646 0.010958904143113051138370 0.006574939825791111837339 0.003288782304988223121472
238.000000 -0.004761759985047302363992 -0.002494179580188226903054 0.000917665825350691562699 0.011312248779133875914438 0.006776048038853494867584 0.003382501985130617703362
240.000000 -0.004916519028171991052834 -0.002587648767945579207639 0.000923230277564934505644 0.011687232037380033619622 0.006989335099906926647428 0.003481833390227382241805
242.000000 -0.005080992654765179028509 -0.002687302629879829204279 0.000928534654328570883269 0.012085296790517273748944 0.007215621190017183599064 0.003587161191047995734832
244.000000 -0.005255888158993027303723 -0.002793627521771848299520 0.000933493416189544716194 0.012508018467343283083859 0.007455798626048827822121 0.003698900588733103692030
246.000000 -0.005441996367350571996158 -0.002907185576646585580679 0.000937980945697170897385 0.012957140526128937962902 0.007710848494966426533437 0.003817502650826766572717
248.000000 -0.005640207011880552477601 -0.003028626329965339314398 0.000941829247480381170216 0.013434631658780430210620 0.007981865747574617975246 0.003943460603231889113895
250.000000 -0.005851534538555779214886 -0.003158713227699031129980 0.000944812728092885413880 0.013942746178238077728317 0.008270085563127679839646 0.004077317144186096663228
252.000000 -0.006077139430996756144787 -0.003298339912388054823156 0.000946646080977499543123 0.014484098985142048604535 0.008576915950310725136885 0.004219673656923174018263
254.000000 -0.006318349290504876245023 -0.003448547276136549114001 0.000946978333256652538008 0.015061732958704556264995 0.008903967932235398730079 0.004371199544053186274162
256.000000 -0.006576672131859816021471 -0.003610526347599295020341 0.000945405855221783221823 0.015679177832412068832602 0.009253079799040058936455 0.004532640163796408834529
258.000000 -0.006853797110205382160653 -0.003785608436471072160701 0.000941490421130004688510 0.016340477448752357275685 0.009626330620896222239891 0.004704824076416180486659
260.000000 -0.007151575346079423224632 -0.003975228607554626321374 0.000934799891102701006537 0.017050169698052064504168 0.010026032067167713057732 0.004888665550099982430587
262.000000 -0.007471979255508490354309 -0.004180867911193518644819 0.000924959174614372161075 0.017813193813352012212503 0.010454691248577254597540 0.005085162054290057534467
264.000000 -0.007817038504408173327231 -0.004403972644025299157389 0.000911709036386168405856 0.018634711235737341089580 0.010914939085664003906584 0.005295384970987436490386
266.000000 -0.008188752586952563472522 -0.004645849798555831342006 0.000894976173911834495776 0.019519842982965548289220 0.011409427308780917265096 0.005520464512066049385386
268.000000 -0.008588999470891475057632 -0.004907570393353521617796 0.000874919914389585902555 0.020473343463340860221011 0.011940701954965186534774 0.005761569610215656021823
270.000000 -0.009019450881035012343445 -0.005189887096898431785574 0.000851958348443073972336 0.021499255821732326382500 0.012511076182404918741287 0.006019888418286186218542
272.000000 -0.009481525643635392575082 -0.005493210449236387779570 0.000826737181304610453843 0.022600632840186693495177 0.013122533940958318668391 0.006296612931992425117589
274.000000 -0.009976397573606870031182 -0.005817653349950453051109 0.000800051791158407966421 0.023779412388237993608575 0.013776700707123314126878 0.006592935686422070513946
276.000000 -0.010505072929253617478040 -0.006163159365644764985104 0.000772715089480232784035 0.025036508165239189371842 0.014474898991115502100424 0.006910060251258965009769
278.000000 -0.011068534358944767670430 -0.006529706598609338018269 0.000745388589496846776239 0.026372146936386259286067 0.015218295240858747616186 0.007249225649451675364265
280.000000 -0.011667952946201712999263 -0.006917579307990430123598 0.000718391540358386806661 0.027786443307996407103833 0.016008136297718859181183 0.007611747098873140882080
282.000000 -0.012304946228604738203694 -0.007327681718848498039487 0.000691502325718007342104 0.029280169303009397074877 0.016846054664093831204630 0.007999068077335649840087
284.000000 -0.012981878855478086454145 -0.007761882776437138004022 0.000663761364852398093490 0.030855676554642847558840 0.017734430221110028536025 0.008412825844633764482694
286.000000 -0.013702196715978781291212 -0.008223377380571935540976 0.000633281327183189582213 0.032517937184021218632868 0.018676797798061597899455 0.008854927171235801863780
288.000000 -0.014470753597171880783234 -0.008717006871724820166181 0.000597120108724594027272 0.034275685420018242588469 0.019678290893462142135961 0.009327632556415256515070
290.000000 -0.015294016976510886596241 -0.009249388681197696221448 0.000551361711127853430098 0.036142560821788315139624 0.020746066031299571080782 0.009833629909010556044424
292.000000 -0.016179823021972353919162 -0.009828443839371486454026 0.000491792843892772512521 0.038137914391826989446432 0.021889534973110719162648 0.010376054504634472236413
294.000000 -0.017136006363208222680328 -0.010461504572193965761917 0.000415890788104071780235 0.040286183686406400183966 0.023119855021716078508076 0.010958314560336211707092
296.000000 -0.018167063596233927469381 -0.011151074377954395613899 0.000326709342392903911035 0.042612121642059942738801 0.024447392235223758955032 0.011583421506086379396128
298.000000 -0.019268973823343638063221 -0.011888659970378918917522 0.000237564777469293647322 0.045127863112778332510544 0.025875493755395408829179 0.012252500229603198803052
300.000000 -0.020424687753842915571845 -0.012650017563105497506171 0.000173803749423095238967 0.047812644091506345533915 0.027391913384528013969410 0.012963018608427389830040
302.000000 -0.021604154496188389400491 -0.013396377969887565337337 0.000168342638852924590502 0.050598632154791774173663 0.028965478543167937075520 0.013708727672319093171538
304.000000 -0.022770424164856487014852 -0.014083119425840777416692 0.000251797311090212023402 0.053377863079673716628637 0.030553797190624253088398 0.014482283437924268337804
306.000000 -0.023889102703967900198645 -0.014672374939183448205871 0.000441844325507222243817 0.056027536361298847789048 0.032115572861743886534658 0.015277856409468456785894
308.000000 -0.024936059884309032252947 -0.015142649704942714658507 0.000738424827292843716925 0.058440322775871141047777 0.033618250643821519230148 0.016091048219202663122074
310.000000 -0.025898984049677054031235 -0.015489488454097855713032 0.001128294233879221716843 0.060545193857836979156595 0.035039735299881004382261 0.016917484863939201422678
312.000000 -0.026773046965373428762724 -0.015718484551902285606406 0.001594699911369692590241 0.062309994359895030935359 0.036367124646885039263022 0.017752358050394181215870
314.000000 -0.027555518458015904048608 -0.015838136063329261160604 0.002124677776786412699422 0.063731673449612863402436 0.037594613657786601912392 0.018590721020044977118690
316.000000 -0.028243183453345078320895 -0.015857565443767485113824 0.002710225649687339217336 0.064824610259193171657444 0.038720975582902002198882 0.019427438112820043236706
318.000000 -0.028832577277967223750021 -0.015787627273061401872445 0.003345161037489656052218 0.065611737500412131707250 0.039746790683876584426848 0.020256601281096988514951
320.000000 -0.029321168412480697051947 -0.015641479943814644293365 0.004021783059166006424334 0.066119053266812333191638 0.040672077387265997971966 0.021070597864108798341620
322.000000 -0.029707783275512336662594 -0.015433268933900947880722 0.004729510511232814899685 0.066372116972268302426130 0.041494338987161510923229 0.021858764675875733130006
324.000000 -0.029991342241430459653051 -0.015175142114548761940185 0.005456498561459653673378 0.066394131591936356162620 0.042207259098739687008806 0.022606095884564365861014
326.000000 -0.030169077920497257283561 -0.014874332907898789660206 0.006192924801383016195078 0.066205320086476324159541 0.042800310142946919322871 0.023292867909119191471845
328.000000 -0.030236466166280361045349 -0.014532913885935298814456 0.006932641492032795386968 0.065822279380980217022845 0.043259073637126790878860 0.023895653490904108368076
330.000000 -0.030188937488669027875421 -0.014150286218340754965106 0.007671880364796373509562 0.065256814001569601879638 0.043566496220161732289000 0.024389770986852632450592
332.000000 -0.030023734831144534979108 -0.013726159728359615605497 0.008406485120304261343671 0.064514994182657783849955 0.043705234820650848415191 0.024752786233459382614353
334.000000 -0.029741530067551917582147 -0.013262988412848666572308 0.009128833373082430660550 0.063596171894069200569710 0.043659881638605270437470 0.024968234724259703166682
336.000000 -0.029347546821831278773818 -0.012767113622168998685047 0.009825602762465975026362 0.062491355691727548671288 0.043417294149596621921638 0.025027943074706193032908
338.000000 -0.028850253120678358981221 -0.012246756762057574297042 0.010478593351126610014323 0.061182626234383495622549 0.042964923548654707086136 0.024931053507243314953934
340.000000 -0.028257771788478221186569 -0.011707806754558534867439 0.011068907245759179724942 0.059647552625877835186241 0.042290690214919442191377 0.024680992468511658843866
342.000000 -0.027576035509348759827697 -0.011152057985420901070617 0.011581241052304035166198 0.057870126054941573023882 0.041388209151310410838231 0.024284204736200281499192
344.000000 -0.026810203193909500768433 -0.010578976993576202567104 0.012006812579880236230290 0.055854241963430771578114 0.040264752912912468718609 0.023751325076828463944700
346.000000 -0.025965991028384625277647 -0.009987217414740078708091 0.012345696489752467500667 0.053629886697363113312598 0.038943731818212576345495 0.023097433322131103589081
348.000000 -0.025049380058132900833678 -0.009374556425637177448085 0.012607745504615987947039 0.051247952689790758629140 0.037459021953864100884513 0.022339656830142762961033
350.000000 -0.024067028364365968678973 -0.008739433714733941746533 0.012808473902535106453415 0.048766692116908476328785 0.035845845511240037595257 0.021494008609237572060557
352.000000 -0.023027434549612275233033 -0.008083722544266730425377 0.012961197031625987241554 0.046236126163559480850562 0.034133171298200828958080 0.020573359482569612138869
354.000000 -0.021941098354019774457901 -0.007413451862353026382280 0.013071801928078465721006 0.043688985433772607736014 0.032340724595383202322196 0.019587170261611466098861
356.000000 -0.020820546484219933786042 -0.006738667181324662150410 0.013137581642948046103947 0.041141519947909190035862 0.030481448604567154547773 0.018543163223737675615599
358.000000 -0.019680322643327669007718 -0.006073554881761407051033 0.013147526468287309628358 0.038599360775997688943750 0.028566838609472025578562 0.017450049209258182425497
360.000000 -0.018535831704302833944364 -0.005435629028600679965577 0.013083074965580263407383 0.036062886790150225357898 0.026611003136995142054344 0.016319394491995244111937
362.000000 -0.017402185956862364218933 -0.004845227355563066530542 0.012918318913984686360785 0.033529727370269941932879 0.024631030771296552606131 0.015165489796587796472727
364.000000 -0.016294763406992696791464 -0.004327375541842872277987 0.012618090008050020928154 0.030994835147844627259994 0.022645401564434373270496 0.014004436126019269986953
366.000000 -0.015230966739207780352716 -0.003914176620281105238586 0.012136745366564637149676 0.028450859134809106804065 0.020673219344443313771897 0.012853735127623212158854
368.000000 -0.014230049160894380974596 -0.003641476136326210564370 0.011425982031423398063708 0.025891882392337486895606 0.018734251889185801753790 0.011731421470081004193586
370.000000 -0.013307662947668769462539 -0.003534557162999853435065 0.010457264771139384088028 0.023321903253345183104628 0.016848838735887133877256 0.010653729236706125857448
372.000000 -0.012467347938368702336964 -0.003589628205598723465625 0.009247263197625496186638 0.020763888444943996020031 0.015037672817409877823458 0.009632524811102926090567
374.000000 -0.011696185136575143123649 -0.003766205905957134732198 0.007865661599066759226973 0.018262056645784455893855 0.013321559550924491968638 0.008674472936123677618836
376.000000 -0.010968377506779033309092 -0.003995978678876857363711 0.006420580623815990567449 0.015875348872481157697090 0.011720589970866352597101 0.007782119100883679550795
378.000000 -0.010255066865783021845537 -0.004203510332957633398310 0.005029501518712726007565 0.013663811983489929785529 0.010251843685034598557815 0.006955778700138671999387
380.000000 -0.009534602790063040692048 -0.004328595384189424383203 0.003788164659834520470172 0.011673067181894300481382 0.008926216273565486941655 0.006194943741299177922266
382.000000 -0.008796754723526378078047 -0.004337936225038871787540 0.002753057131942424594351 0.009925520582354420071058 0.007746641621150045751987 0.005498506238705341310491
384.000000 -0.008040416027929981127031 -0.004223203485342723502438 0.001942505994474222124832 0.008421167081215872804445 0.006708204731583937256711 0.004863958876949045322113
386.000000 -0.007270214279886756669757 -0.003994141992709500203762 0.001345997528241323548323 0.007142634301509230912441 0.005799194175777937047822 0.004286754487626490660312
388.000000 -0.006494464268943311337223 -0.003672236106686822734030 0.000933957273009738747280 0.006061151988215798119830 0.005003232765014410145243 0.003760740705860637564384
390.000000 -0.005723810415261530205877 -0.003284917240316701479708 0.000667485909551241611906 0.005143377299877924767324 0.004302583734712058134708 0.003279493621851493987546
392.000000 -0.004970270224004608855539 -0.002860776871949718361959 0.000506691480396773987448 0.004357612093356718480086 0.003681305165780162334810 0.002837640872473724991398
394.000000 -0.004246643922453271352557 -0.002426719334870710512858 0.000415698666961150957097 0.003677372372721636906850 0.003126873688386363168978 0.002431466255741246071387
396.000000 -0.003565523556407735987495 -0.002006038906807396018234 0.000365133771256600484119 0.003082410625723666728476 0.002630286811814737737980 0.002058765010399562014887
398.000000 -0.002937916077351179332949 -0.001616719136490662924593 0.000333463013193504328839 0.002558571951478422028259 0.002185584028785194678213 0.001718505686744637231400
400.000000 -0.002372206656671226043809 -0.001270364197139143939974 0.000307323402720210937192 0.002097164628318759754116 0.001789407967084927783899 0.001410690513160598900597
402.000000 -0.001873978758819754963233 -0.000972707701459274518691 0.000280178201640735643346 0.001693646974130999212707 0.001440418565672580992337 0.001136204037861792076960
404.000000 -0.001446360583566246374443 -0.000725226519272462850051 0.000249918521450652692060 0.001345703929427365325502 0.001138290307527157520229 0.000896315831845530784638
406.000000 -0.001090270250630289263286 -0.000526713303143091626096 0.000216739000095656934647 0.001051653749403239600235 0.000882715984252693190541 0.000692004702685271701548
408.000000 -0.000804099004600341117979 -0.000373849942077237608860 0.000182085330092110508123 0.000809495782845472285592 0.000672649261664901108176 0.000523356247407134270860
410.000000 -0.000583126981731390842817 -0.000261261336856208282921 0.000148198391793036944120 0.000616271301034785582047 0.000505758014192644812963 0.000389124474239227067986
412.000000 -0.000419251049892160865783 -0.000181758057029871944541 0.000117501024555603913926 0.000467455708347585912037 0.000377995075708618629741 0.000286398445298643815598
414.000000 -0.000301792015996874614814 -0.000127365094731728860974 0.000091716768784329153006 0.000356647901201416527364 0.000283541503087816578518 0.000210629661764258997378
416.000000 -0.000219525875925631678816 -0.000090765333974553418775 0.000071402641066891511736 0.000276262723172259426745 0.000215540794934426023933 0.000156300211452471124246
418.000000 -0.000162713907493667518612 -0.000066338652936039573557 0.000056062935907448511346 0.000218881946306556586946 0.000167388599347603181161 0.000118045536652020834848
420.000000 -0.000123875171992570890346 -0.000050182546592885395747 0.000044697870616672629254 0.000178188905133597164879 0.000133570237180906733901 0.000091396076216940233604
422.000000 -0.000097532779897612623446 -0.000039581008631433661207 0.000036376982953811626449 0.000149373185606314884920 0.000109904872176523206559 0.000072957037692515652868
424.000000 -0.000079739040890085767965 -0.000032640626143656555731 0.000030335474390332660313 0.000128881872682109859234 0.000093324155848739949307 0.000060239370506775749168
426.000000 -0.000067674329711058927314 -0.000028046791935298899073 0.000025983231986188317747 0.000114145569572092194042 0.000081606484491837359978 0.000051438964856910620097
428.000000 -0.000059358713711771089673 -0.000024914598404809193448 0.000022845962818917881220 0.000103305957531201370340 0.000073167427782385902643 0.000045273914265430769495
430.000000 -0.000053448390845892306314 -0.000022677094299924219537 0.000020563551383309059740 0.000095075715811172211095 0.000066901550350108058163 0.000040840001586554349107
432.000000 -0.000049066788820116201636 -0.000020982654429808684002 0.000018866364212131799699 0.000088567668465102736817 0.000062052180632430855483 0.000037526033084737843296
434.000000 -0.000045651403638458534046 -0.000019628229525879784131 0.000017549745913893556105 0.000083197397123853099083 0.000058124622060856805951 0.000034932119343534563400
436.000000 -0.000042857065958325200081 -0.000018481080424608241759 0.000016493802002089647229 0.000078585572414395594358 0.000054805058836269272609 0.000032804110412676980031
438.000000 -0.000040464511747585426606 -0.000017476823832492150871 0.000015606086387834598744 0.000074505109007884742257 0.000051900204818545120973 0.000030985335546974600784
440.000000 -0.000038347783256329827947 -0.000016567973493118547243 0.000014835685084755778485 0.000070796256138554652460 0.000049274895382735419617 0.000029370660045562546424
442.000000 -0.000036427873113898938287 -0.000015736124387699094876 0.000014136635953823757934 0.000067347469854481755401 0.000046852518559749676684 0.000027899928538258474088
444.000000 -0.000034648935704277872033 -0.000014947175389694891635 0.000013505986696250134725 0.000064123273112862792518 0.000044593965637152925910 0.000026540315711868574429
446.000000 -0.000032995078500932037554 -0.000014224990936947277934 0.000012897029441732043887 0.000061071862784385695807 0.000042466442993568324481 0.000025269729705381081965
448.000000 -0.000031431322769167714204 -0.000013543345121930376842 0.000012311399434126363598 0.000058155208158155569759 0.000040439027342777974898 0.000024065375147956072946
450.000000 -0.000029960105039548871262 -0.000012903603741782582550 0.000011757644882072131479 0.000055405515620871895416 0.000038524553839235729639 0.000022928874382747658621
452.000000 -0.000028557320610261752831 -0.000012294060877719919578 0.000011218112290077396484 0.000052781935394342300119 0.000036701548307567541764 0.000021846950505283328000
454.000000 -0.000027232351293074154942 -0.000011738094018038043223 0.000010671365881944470767 0.000050264496720624571172 0.000034956908446900348782 0.000020815554043060476952
456.000000 -0.000025968169648708780065 -0.000011223772260259417150 0.000010125780621959866635 0.000047846320357521051139 0.000033283671865502902337 0.000019828360476350104930
458.000000 -0.000024758071153150448335 -0.000010712566690742288656 0.000009629242437501499995 0.000045555946901206363598 0.000031701354711524604754 0.000018892401187413840731
460.000000 -0.000023602170838670828322 -0.000010235596125276633458 0.000009135712507640566331 0.000043354445234758165516 0.000030178470662886982059 0.000017994731873718358217
462.000000 -0.000022503632803610579125 -0.000009781957060613221560 0.000008666784505097687236 0.000041257459193488864866 0.000028735464753575192052 0.000017142906419320202494
464.000000 -0.000021445040335489158953 -0.000009334062819129739229 0.000008229800018786217068 0.000039264595032988433120 0.000027356219189169900371 0.000016325195336355404873
466.000000 -0.000020431917995363334088 -0.000008907850064557269748 0.000007814184621282529200 0.000037366207988160725741 0.000026037891736136580532 0.000015543060204754891382
468.000000 -0.000019463296025585588545 -0.000008485385334091469028 0.000007448422219645026539 0.000035588453969593848930 0.000024795950839622097765 0.000014801614166398461043
470.000000 -0.000018523808460290479131 -0.000008069242316589326927 0.000007094219243985699242 0.000033872342972692459293 0.000023596205749829367141 0.000014085919160971007379
472.000000 -0.000017632243862047058193 -0.000007673967081298574077 0.000006764227812825017772 0.000032245350938289720161 0.000022462098699482902051 0.000013409919256607207111
474.000000 -0.000016785574078133784671 -0.000007301072376710885132 0.000006444158323265438711 0.000030692906767161530208 0.000021388348933349359801 0.000012770096108508456723
476.000000 -0.000015974050656122562938 -0.000006950838352199229568 0.000006126163955116293924 0.000029199345285403617925 0.000020351374397305291704 0.000012154549587019967784
478.000000 -0.000015204486493547743060 -0.000006618524542276914249 0.000005822501172062205426 0.000027781107469238810521 0.000019364057443207603244 0.000011566900240010444104
480.000000 -0.000014463419868317858380 -0.000006294640258041669759 0.000005540948874203353778 0.000026424893001276213590 0.000018421184434629392054 0.000011005832986267934895
482.000000 -0.000013752760360534627769 -0.000005974384507995601411 0.000005293602833127280280 0.000025159231152546533564 0.000017527808281504952758 0.000010466798475919853186
484.000000 -0.000013089980092970944788 -0.000005691381420494691159 0.000005030733498425657065 0.000023955014340980649971 0.000016684279920261881069 0.000009960385102727084528
486.000000 -0.000012450838865119382654 -0.000005406962631081463962 0.000004792878315729060418 0.000022789604525529029346 0.000015880232941200234326 0.000009480577000761556224
488.000000 -0.000011841941326503025185 -0.000005142611044255636600 0.000004561973182654505775 0.000021670397369759605762 0.000015096348281547010390 0.000009011886462329084452
490.000000 -0.000011263494728138976258 -0.000004878094323128809769 0.000004360371875086601860 0.000020632770358181157786 0.000014368977320289191322 0.000008575436632374196276
492.000000 -0.000010724379244575995811 -0.000004653694655410748089 0.000004139448982318879673 0.000019631978304195847889 0.000013666497470894418373 0.000008154756469583207386
494.000000 -0.000010202966859223247957 -0.000004433913804038382992 0.000003925339875880354634 0.000018665646844060043361 0.000012996675909767453538 0.000007757365297737726150
496.000000 -0.000009702540087210619087 -0.000004208350382896177822 0.000003739456208494442259 0.000017766006691573838194 0.000012370399399635877174 0.000007382900018310580652
498.000000 -0.000009240831851087881495 -0.000004007207049645004568 0.000003560291785652025405 0.000016920151678451737554 0.000011783941714687880823 0.000007032050630699743059
500.000000 -0.000008798747712652367408 -0.000003826193801268561705 0.000003361327051606769815 0.000016091586232544681409 0.000011217663608115833763 0.000006695801056476728707
502.000000 -0.000008375512498505105992 -0.000003644036700468488740 0.000003200516910286249950 0.000015314051515429901443 0.000010670335536885425863 0.000006369572984958660254
504.000000 -0.000007980554422659754310 -0.000003485334982345374675 0.000003036020502233001683 0.000014580613783482948033 0.000010154478378725961506 0.000006062241723219885521
506.000000 -0.000007590164544722491898 -0.000003312704462737888461 0.000002882920496838374347 0.000013864684892904003790 0.000009657640904630213495 0.000005764874654643514037
508.000000 -0.000007229615943345171976 -0.000003157984127284900168 0.000002743664645248255676 0.000013215271363067875195 0.000009207841866913598933 0.000005494427951779084525
510.000000 -0.000006884495675473289387 -0.000003009953967166154374 0.000002604568966305984607 0.000012584737936437941812 0.000008769414717934547729 0.000005231303469212850045
512.000000 -0.000006554637566539576081 -0.000002869286189268299359 0.000002473986283040752717 0.000011977906771314604360 0.000008344349209629744413 0.000004975280749405739770
514.000000 -0.000006236765478003696104 -0.000002729810032794488602 0.000002357278008624932567 0.000011399481229985643395 0.000007936992053172075019 0.000004732297875709543841
516.000000 -0.000005933914612397671926 -0.000002587850655458518068 0.000002262863443882221261 0.000010861511050931373882 0.000007556272720417489105 0.000004507314482400318615
518.000000 -0.000005669906177921446045 -0.000002485286805869693665 0.000002143394315866637856 0.000010358451682361385622 0.000007209729268707464422 0.000004299454280463598328
518.780000 -0.000018489298397257067044 -0.000020150346936230112611 -0.000017005225299854341802 -0.000003215477370631853366 -0.000001464122583084869059 -0.000003447999363324626836
520.000000 -0.000005400041252696554263 -0.000002357384554118647034 0.000002058155313596416273 0.000009893051140935035001 0.000006889314024312476694 0.000004105148661395423888
522.000000 -0.000005143132583752085712 -0.000002249006151720626363 0.000001948915016577369775 0.000009423840151171735874 0.000006565722158947339223 0.000003913592957310395084
524.000000 -0.000004887175334191210144 -0.000002136660206124647333 0.000001854406668557397472 0.000008961826282384542528 0.000006241748903939328134 0.000003721278973151879480
526.000000 -0.000004663686341406115269 -0.000002058421794690865616 0.000001735998490221079632 0.000008524182409915258577 0.000005941246399729796216 0.000003543251505948206984
528.000000 -0.000004433474042485413041 -0.000001934582199118704877 0.000001681208744388057399 0.000008126872832048722800 0.000005667268549383618768 0.000003378888343989388819
530.000000 -0.000004218018625084202072 -0.000001831295312545317570 0.000001612184810331647021 0.000007738163884069725789 0.000005394893082344878682 0.000003215067588872267423
532.000000 -0.000004020489618964613100 -0.000001749645694528570897 0.000001533179174859969089 0.000007380404251247100641 0.000005143255680303609337 0.000003063699836647551849
534.000000 -0.000003836251451134603044 -0.000001677313846759369965 0.000001446536691621654892 0.000007027563567485419269 0.000004900543613163296567 0.000002920473831447582664
536.000000 -0.000003647896140131525815 -0.000001589285836697715063 0.000001391754443260487594 0.000006716162262628677880 0.000004670674008082141623 0.000002780285207735315761
538.000000 -0.000003478987833031868212 -0.000001514415618427262017 0.000001335587554831226179 0.000006417091868153839478 0.000004456765253387568709 0.000002648592317317037142
538.720000 -0.000003421604839869859496 -0.000001488160248635986647 0.000001313847032652983584 0.000006306359096392925185 0.000004383451218817852991 0.000002605237329948814385
