0.000000 -0.000000000000000000000000 -0.000000000000000000000000 -0.000000000000000000000000 -0.000000000000000000000000 -0.000000000000000000000000 -0.000000000000000000000000
2.000000 0.000308424182138428539315 -0.000270356838997301020776 -0.000433599741160005012174 -0.001069585045975259907439 -0.000652718212157530415680 -0.000357152628406420932696
4.000000 0.000721615854785039403420 -0.000033667271727989557225 -0.000655331616297835889244 -0.002156699925166594145054 -0.000847705696310399343246 -0.000388182398648613785196
6.000000 0.001298048408837791743015 0.000599575483176693403188 -0.000235826624291481996192 -0.002502779811644950148930 -0.001073293752349919897085 -0.000519419351475489902287
8.000000 0.002222116663345592105921 0.001537446556008922318379 0.000472195151498937758759 -0.002975279368889048158681 -0.001523275465800804761435 -0.000787650041632736953520
10.000000 0.003743078419535940219720 0.003169912071364157195308 0.001601916068904551872926 -0.003866891092682958434856 -0.002246364871387035271055 -0.001168073443899836534599
12.000000 0.005319132468777905235757 0.004690200032684308656394 0.002397423319400943716312 -0.005526118151568558921338 -0.003069176068009105140533 -0.001598449787235275282304
14.000000 0.007330559245654466767050 0.006468949583358587010484 0.003069042624107855797566 -0.008282186064954641033231 -0.004391502289622176320727 -0.002376982273442228201649
16.000000 0.009850424867990198798950 0.008790337989593119752407 0.004072646719735399829798 -0.011585868552983314555549 -0.006087566568601917270376 -0.003416380867147513628046
18.000000 0.012658543536021839293060 0.011297717110274088994637 0.005015170653566084282837 -0.015285875868070394195675 -0.007981522223352372630290 -0.004638509405943944986783
20.000000 0.015326711169201865866962 0.013211436309026731300564 0.005405651080269355431007 -0.019501657009735138409434 -0.009853197024796821884562 -0.005837710030460932682239
22.000000 0.017781463713229795492454 0.014967061328812789749998 0.005524006624920966244952 -0.023564738375087386501594 -0.011563724370182026576770 -0.007045781667699571940156
24.000000 0.019809370073728193445417 0.015834542609948092095618 0.004927105437737609380799 -0.027691210077662342659011 -0.013321692856638998880836 -0.008363585081428617090671
26.000000 0.021627294740975133713334 0.016384849937701957689473 0.004135260925200624423925 -0.031119159100560938452373 -0.014966792409789531764774 -0.009756384254237531958309
28.000000 0.023617032719384443983923 0.017436672573115739176552 0.004347559274905632084596 -0.033230041975200616533037 -0.016365698744182845258965 -0.011016321286518708857938
30.000000 0.025423899771006761710845 0.017661460798497650298566 0.003357017436788789065821 -0.036245129543281448536440 -0.018036920469013513479428 -0.012564706540130055403837
32.000000 0.027424949807489211461853 0.018552747554098511506560 0.003149179048205741696109 -0.038762074511030843171344 -0.019481595890929574027561 -0.013924316832570586208173
34.000000 0.029212184618285074594324 0.018452408730843205403316 0.002025582818751317775580 -0.041403722242270700470979 -0.021178269772643330826067 -0.015554706477050601887147
36.000000 0.030967653622146623648703 0.018510024171216145350005 0.000794383920665479685563 -0.044241786430567392462976 -0.022920875434896150618647 -0.017250526234545815462695
38.000000 0.032656619287400538709232 0.018561419287944910111454 -0.000362049630447109965694 -0.046658055523432072353440 -0.024606041246925416249303 -0.018919392734540269040977
40.000000 0.034324655927173264302610 0.018610241305219130808490 -0.001652686242823200131122 -0.048983075090613600877099 -0.026553839525811119559595 -0.020942934677556524630804
42.000000 0.036029601179273056110741 0.019045879718082261988776 -0.002456833563767633985681 -0.050766706700251428008297 -0.028758998509617956368389 -0.023284529468242540217737
44.000000 0.037392895275027468460216 0.019150869125941508142041 -0.003639257865400027588954 -0.052810981620835445449202 -0.030755733185518403099978 -0.025463245628652618479659
46.000000 0.038475467025949269816998 0.018751292985837539339933 -0.005256643714713415266315 -0.055010107445381727087064 -0.033006592163705557319009 -0.027861056302758788888463
48.000000 0.039712349706124819292974 0.018934843686214192920447 -0.006343205662439533980279 -0.057144382766778675786234 -0.035338284443632655973389 -0.030318072891277504654628
50.000000 0.040795708199387506476263 0.018907197136731668241083 -0.007901985754903055256260 -0.059385703800743996905176 -0.037580034847813720277898 -0.032697307083031999785927
52.000000 0.041612681916400197368322 0.019126575225603872215663 -0.008593832509784925244301 -0.060720729362231280756834 -0.039431445570730111471747 -0.034724121469564307729261
54.000000 0.042075444770150176310164 0.018728193100832450646021 -0.010626013768083799812536 -0.063194685436284078750013 -0.041328929337127590093459 -0.036657232533077024894119
56.000000 0.042297033977699433071606 0.018728343639849293067456 -0.011748364460434495074037 -0.064777544205185125236746 -0.042523695174684190967174 -0.037897389148065264985465
58.000000 0.042746034906201713088336 0.018501287394553537352104 -0.014112166624873752340807 -0.067750539759668035322271 -0.043786652930284962470520 -0.039035127082282440602601
60.000000 0.043218623952101284380056 0.018716234583140745756369 -0.015310836950137247935988 -0.069321397775459966950073 -0.044591275274363448288817 -0.039826148829720069144411
62.000000 0.043101132982901323165148 0.017920100617137613152607 -0.017701390651797994923999 -0.071193271368636110163486 -0.045136528365371061943812 -0.040427483647404782729495
64.000000 0.042878411993151843706329 0.017749739279855715479162 -0.018327727972706615161558 -0.070587045524726749201605 -0.044812084640165332494188 -0.040389437163894356674909
66.000000 0.041873377196305544556409 0.016337824994792665700416 -0.020290008021156515777284 -0.070516922845599239177972 -0.044023245293875974681885 -0.039894125031746323351012
68.000000 0.040851304711275585046515 0.015475402811495017965648 -0.020785253165200984898364 -0.068720939445835182990407 -0.042988111495693544228391 -0.039218253407345346484014
70.000000 0.040037501531341494753757 0.014633677180633124226272 -0.021424420986079814599456 -0.066691703825884504630572 -0.041811861368202564437357 -0.038414382355695261828110
72.000000 0.039164059188248320775294 0.013910780948541732332524 -0.021631890326067396146392 -0.064185191135840660714429 -0.040616198664255587225114 -0.037556626182325726637234
74.000000 0.037382453207458053723311 0.012246794650289959116574 -0.022904164550748000450664 -0.062683993840048191081848 -0.039337802810877800507861 -0.036542074093020668335008
76.000000 0.036025320263974924817063 0.010902173822470441824639 -0.024419445203484407835859 -0.061784502524366943787548 -0.038212642115365430539597 -0.035617097222096057163032
78.000000 0.034394492952326854995349 0.009515541899826304370058 -0.025395637883895608166718 -0.060127917819969331492125 -0.036806363543676480498679 -0.034418416245457800206609
80.000000 0.032518015265527999702044 0.007742112850075526242488 -0.026830551304847703730783 -0.058820785373638800885843 -0.035480857613288341312341 -0.033263063322640576413569
82.000000 0.030663808433074767750837 0.006119928597052300134340 -0.028078371537077057712439 -0.057420461960005268753360 -0.033627121132983578410958 -0.031621515502779147521739
84.000000 0.028832418112185301262151 0.004418798636867083198809 -0.029410933185786747312562 -0.056075062651684402792451 -0.031638203887520637003217 -0.029819077695407265882199
86.000000 0.026440623838361806963171 0.002401613610224357080875 -0.030624044455520919166824 -0.054106757564378021863050 -0.028743212232792962612660 -0.027049124129563655721809
88.000000 0.024425187573822768061227 0.000828449083533743056013 -0.031323260249882335648497 -0.051831444177646415760741 -0.026068864794778576904344 -0.024518349893303176267878
90.000000 0.022369929976410362487682 -0.000923898505839414554454 -0.032358485755352855983702 -0.049882739384700038043352 -0.023593213938807432866751 -0.022193890836987827108739
92.000000 0.021232650783194272070542 -0.000503691997256998022503 -0.029933744846297530295409 -0.045389365498574432700174 -0.021283503619812637469577 -0.020147425410017641422833
94.000000 0.020726096927465055552720 0.001215764415368333949477 -0.025732341483221676803339 -0.039882727307570926822411 -0.019238956978483837123584 -0.018397910596809660677131
96.000000 0.020636290657255456498786 0.003678602922268590924570 -0.020686642242097454807981 -0.034023133901534115264287 -0.017308105118987643367134 -0.016764797821090780122200
98.000000 0.020813415591737563503649 0.007342844020883771555264 -0.013217700986373547705766 -0.025721119230865754218263 -0.015357994792831829514168 -0.015232141071012601438173
100.000000 0.020503498722035266854657 0.010542494037059360265096 -0.006152715460085257659362 -0.017863422987089191962262 -0.013299307461012311454285 -0.013509861115545727244802
102.000000 0.019309312578850896385818 0.011447217447401104861715 -0.002643643740778818269216 -0.013299948312189132856864 -0.011608547571909617196484 -0.011981362614444976411043
104.000000 0.018020420585515815187216 0.011461927608663166969216 -0.000778086034059690062961 -0.010331836892797097160468 -0.010146863872012542792667 -0.010603292306398264671641
106.000000 0.016585247546862687956226 0.010942720612694925574893 0.000296990297713299394259 -0.008105270107670892523744 -0.008929956763504574845935 -0.009444192679247885927052
108.000000 0.015332247631319398037397 0.010240594496086698195203 0.000776656861692617784751 -0.006598597303050217181830 -0.007969161932968964884294 -0.008518343259694026101125
110.000000 0.014055774982854403812316 0.009330926631104820984097 0.000737631327084291277783 -0.005741337399574936509183 -0.007111386563955588747954 -0.007648445805135235635308
112.000000 0.012578127701056594431317 0.008209677411610468225622 0.000533669931771374971008 -0.004994571136754183231232 -0.006286878159794199658061 -0.006810175761800916528765
114.000000 0.010792678832931244803373 0.006723949875740552889480 0.000068506556565770004331 -0.004351575726808847369154 -0.005423705111482709367854 -0.005925015412496990180324
116.000000 0.009252472787564275380490 0.005628838229376305866969 -0.000044369691702361710515 -0.003549020923084034509487 -0.004610720355374697994322 -0.005097604332396261060667
118.000000 0.007703416747874092772308 0.004504485896690408469611 -0.000195091482578936439678 -0.002776721904789017369986 -0.003776960844088930041584 -0.004240623717508865478387
120.000000 0.006225841928266231430078 0.003589679140108893370953 -0.000124105995694262315589 -0.001874286006033207101218 -0.002934866008902446005147 -0.003376690440746613584844
122.000000 0.004924975549398046860416 0.002863797523715060425187 0.000033659310351087396579 -0.001006200817352091020362 -0.002146756766030676055745 -0.002563058203473644186543
124.000000 0.003712746458336817559354 0.002267627731793923993170 0.000277109634061829888507 -0.000122096721467606771517 -0.001374259773279174054114 -0.001763476379827057542379
126.000000 0.002621566578751025923533 0.001658665174120980793926 0.000355757561694059159900 0.000511290669774404631272 -0.000717935296516176687034 -0.001072733345728598504040
128.000000 0.001654215160193097181041 0.001141605879249421280977 0.000463596673687118390750 0.001098865285758366490063 -0.000163334399815775598453 -0.000495099382378781996406
130.000000 0.000751799947176203615593 0.000606434431868597945657 0.000469491860956031939380 0.001541614240557882169538 0.000318237944902498228091 0.000012430883746748728818
132.000000 0.000030020676909075250804 0.000212559560460926199590 0.000517229058003168583671 0.001930803055119850123594 0.000718351477781866906702 0.000433401233624276370927
134.000000 -0.000563947308542568420328 -0.000107770889294141845459 0.000567806631503365785707 0.002266785189366354088397 0.001043014836463454150794 0.000772428614028195935533
136.000000 -0.001072720785771502649553 -0.000396980894611392355099 0.000577885967721398661687 0.002512579424256886160421 0.001302482077547497058348 0.001044665173074917205107
138.000000 -0.001391021358935600957252 -0.000551643931377429272422 0.000630489967410342942028 0.002723028940372712591866 0.001486109166184694041837 0.001234103601714534384493
140.000000 -0.001706610645173480510228 -0.000756849894832020307286 0.000596417502949027713600 0.002833920295226719562182 0.001617080370998166122254 0.001370017143536082174921
142.000000 -0.001777880365330274624325 -0.000789253661013446196001 0.000622516721444779392441 0.002913296019412714172453 0.001667716253430146953682 0.001418070202193885990735
144.000000 -0.001838550821040079016541 -0.000819333592442233289363 0.000641183957378101956545 0.002980298593409801480303 0.001711891327175559538235 0.001459897146608098855713
146.000000 -0.001900795711633106871430 -0.000851653127653756122396 0.000655768403604430950328 0.003042441135085073664751 0.001755230268409369151147 0.001501267561818752900929
148.000000 -0.001961643202923740638560 -0.000884017160927086289440 0.000667570668601231488083 0.003100216988278048629163 0.001796656531340374684386 0.001540870639266668420259
150.000000 -0.002019782482740171969393 -0.000915419769570114446461 0.000677286774939447281524 0.003154054168278811343812 0.001835785040339824947600 0.001578201706371110688357
152.000000 -0.002074542304584434896514 -0.000945291656431611012658 0.000685437155109907018599 0.003204429318396527850976 0.001872512287684081205841 0.001613078354409869285060
154.000000 -0.002125661232154372158598 -0.000973354302016518299102 0.000692417931390430026369 0.003251841738109435657467 0.001906905627225714697573 0.001645514262350178955399
156.000000 -0.002173174107943463134740 -0.000999534663872579578342 0.000698535932046156528286 0.003296799597457098982001 0.001939151495775038062594 0.001675660866825841831262
158.000000 -0.002217331061426230758016 -0.001023914114113672838707 0.000704022012858390678833 0.003339804336253672512047 0.001969512591669564556540 0.001703759208763776233919
160.000000 -0.002258515373134878899408 -0.001046670936513187074104 0.000709051803868832649508 0.003381337939915148634723 0.001998293986281659152110 0.001730102085724258059382
162.000000 -0.002297181055784996983604 -0.001068035319398281859232 0.000713759954952089418004 0.003421851525347587106435 0.002025815881627860814279 0.001755003469872421124898
164.000000 -0.002333809108897445805386 -0.001088266433493010210826 0.000718245075521553371853 0.003461758360712940095494 0.002052393404492272588335 0.001778775784466619935831
166.000000 -0.002368872332704997397956 -0.001107623142542732462903 0.000722584574232172302533 0.003501434785982782214170 0.002078325199471260480155 0.001801716374127877197397
168.000000 -0.002402817245828195707319 -0.001126353675397536802452 0.000726837530606670506259 0.003541218569764778383024 0.002103886353607542676614 0.001824099563556471053499
170.000000 -0.002436051198614026108702 -0.001144686859704255712036 0.000731050836093770405391 0.003581412376569779662527 0.002129325173352505581881 0.001846172424392183378933
172.000000 -0.002468942264301964006901 -0.001162830992264635588535 0.000735259811200285806274 0.003622284294833849095652 0.002154863526086530159387 0.001868154768918535088562
174.000000 -0.002501816363681055779139 -0.001180972503518423538313 0.000739491268616635335012 0.003664074617802726748644 0.002180698589777783913402 0.001890240629271710106132
176.000000 -0.002534960236378436520405 -0.001199272923728545835881 0.000743772035738726831205 0.003707005075698393929684 0.002207006346787639908952 0.001912601353840556132196
178.000000 -0.002568631187695393988668 -0.001217884185280654991620 0.000748113286103105627929 0.003751269124915413300664 0.002233942942871111527608 0.001935387410745332712955
180.000000 -0.002603053688144171557567 -0.001236934946256414450880 0.000752531297229843245192 0.003797052140394197982526 0.002261649610232368667190 0.001958732836559410207117
182.000000 -0.002638431141462062225894 -0.001256542983082730054190 0.000757038824534452784061 0.003844528630169344058515 0.002290256245463952178287 0.001982758820969134951062
184.000000 -0.002674947555520119923944 -0.001276817790988652150802 0.000761642570054051363734 0.003893862326804800339658 0.002319881629106830198128 0.002007574470821647111274
186.000000 -0.002712773011167089742823 -0.001297860198923507296306 0.000766348832365156213201 0.003945213912457660142274 0.002350639198028116327865 0.002033282003927282949318
188.000000 -0.002752067663803238906778 -0.001319766260737745625087 0.000771162239249301943028 0.003998742655122805404744 0.002382637942915491729295 0.002059977848569898104675
190.000000 -0.002792984829456379106821 -0.001342628239069992976060 0.000776086969924116875687 0.004054608753135126655853 0.002415983838439925146524 0.002087754304626815351348
192.000000 -0.002835673737222110975253 -0.001366535635011532391625 0.000781128189574595353621 0.004112977812832650445496 0.002450783442031494521740 0.002116702571670141166255
194.000000 -0.002880284704161904883041 -0.001391582892056770180689 0.000786283132079910302391 0.004174014898012210796063 0.002487143765304441166142 0.002146913194774626842259
196.000000 -0.002926967619771640195803 -0.001417861615545643830943 0.000791554304830868532203 0.004237897153637355460165 0.002525175178872963045046 0.002178478455402370513039
198.000000 -0.002975878063278715977835 -0.001445469763217854591505 0.000796939349461491843007 0.004304806678642086534281 0.002564991015754692228051 0.002211492143380691666188
200.000000 -0.003027176707342827451791 -0.001474507192799568962641 0.000802437642908393001032 0.004374937782173173202172 0.002606710998267103025078 0.002246052783607239543978
202.000000 -0.003081030552885455960771 -0.001505079038561890755407 0.000808046543168627461745 0.004448494849245915663816 0.002650460054831248364604 0.002282262483193716988417
204.000000 -0.003137616672656729551599 -0.001537298372170612346943 0.000813761127729237970264 0.004525695301374037422815 0.002696370461568894667109 0.002320228813909833761459
206.000000 -0.003197122738751696693210 -0.001571283521512696883943 0.000819578563855038132700 0.004606772993607444882658 0.002744583078177841896361 0.002360065932925315291407
208.000000 -0.003259748262196024686660 -0.001607162926514666724531 0.000825490607644572584045 0.004691973784416246691376 0.002795247582480650354320 0.002401894944541461442145
210.000000 -0.003325706366342024312283 -0.001645073149614356862458 0.000831491192082053237090 0.004781564571246691743023 0.002848524360364633814524 0.002445845259001004981525
212.000000 -0.003395224544524542281687 -0.001685160671385471957071 0.000837570628008127318447 0.004875828155036148435497 0.002904584528321708415677 0.002492054813072314828348
214.000000 -0.003468546957535989603422 -0.001727582863842346905595 0.000843719660733853742303 0.004975069247315617136651 0.002963611021881303302788 0.002540670892952466824316
216.000000 -0.003545934685022538411514 -0.001772508245267414780932 0.000849927337314013197148 0.005079613764357298992536 0.003025800481445600331049 0.002591851893506026162373
218.000000 -0.003627667729242668205603 -0.001820117340349606573080 0.000856181953665712176284 0.005189811132132002291506 0.003091363364695943766886 0.002645767281727385601686
220.000000 -0.003714047301748903042590 -0.001870606599576220404821 0.000862467743845313477430 0.005306034632688130456279 0.003160525383378424892772 0.002702598868727817179453
222.000000 -0.003805394969708593075342 -0.001924183557147588147576 0.000868770670494466851208 0.005428685191916245850186 0.003233528242862921450035 0.002762541498267804054856
224.000000 -0.003902055383433119650077 -0.001981071086821800230487 0.000875075458783985634693 0.005558191813439403161645 0.003310630308682819492733 0.002825803591811566328057
226.000000 -0.004004397820523976705975 -0.002041509307757006889961 0.000881363375920249489566 0.005695011414420408403514 0.003392108871024486493884 0.002892609423437620015662
228.000000 -0.004112815673303062309618 -0.002105751738083796661960 0.000887617767693869136846 0.005839632519858035074323 0.003478259564336659472733 0.002963198439477282477433
230.000000 -0.004227728357339686528216 -0.002174068460849891588904 0.000893821131249927423000 0.005992575303789240276364 0.003569397837790516843370 0.003037826648246382335583
232.000000 -0.004349584555946602211496 -0.002246749832308233326555 0.000899951516720543919642 0.006154389850503659380176 0.003665860382445579063876 0.003116768217474373374454
234.000000 -0.004478861899946212817014 -0.002324103603638252336927 0.000905988049473621854558 0.006325662068076554067630 0.003768005868281353552829 0.003200315941248345341652
236.000000 -0.004616071272833519034684 -0.002406461364003893363406 0.000911903516670154400646 0.006507009744823534676261 0.003876216228134453638948 0.003288782304988223121472
238.000000 -0.004761759985047302363992 -0.002494179580188226903054 0.000917665825350691562699 0.006699087782348422427658 0.003990899784915968168120 0.003382501985130617703362
240.000000 -0.004916519028171991052834 -0.002587648767945579207639 0.000923230277564934505644 0.006902588719683784221348 0.004112493566519479816501 0.003481833390227382241805
242.000000 -0.005080992654765179028509 -0.002687302629879829204279 0.000928534654328570883269 0.007118248582808374240460 0.004241467453067601298122 0.003587161191047995734832
244.000000 -0.005255888158993027303723 -0.002793627521771848299520 0.000933493416189544716194 0.007346856869584008666030 0.004378331013449203619470 0.003698900588733103692030
246.000000 -0.005441996367350571996158 -0.002907185576646585580679 0.000937980945697170897385 0.007589264162959893054994 0.004523641693837325387928 0.003817502650826766572717
248.000000 -0.005640207011880552477601 -0.003028626329965339314398 0.000941829247480381170216 0.007846407487168359159990 0.004678016049409857400609 0.003943460603231889113895
250.000000 -0.005851534538555779214886 -0.003158713227699031129980 0.000944812728092885413880 0.008119331786489341132307 0.004842141910244268307451 0.004077317144186096663228
252.000000 -0.006077139430996756144787 -0.003298339912388054823156 0.000946646080977499543123 0.008409226109878360430616 0.005016793407902322456116 0.004219673656923174018263
254.000000 -0.006318349290504876245023 -0.003448547276136549114001 0.000946978333256652538008 0.008717455031837011147910 0.005202845220838419812437 0.004371199544053186274162
256.000000 -0.006576672131859816021471 -0.003610526347599295020341 0.000945405855221783221823 0.009045599872522139262010 0.005401284108970895794788 0.004532640163796408834529
258.000000 -0.006853797110205382160653 -0.003785608436471072160701 0.000941490421130004688510 0.009395488605537748866281 0.005613216623850210071356 0.004704824076416180486659
260.000000 -0.007151575346079423224632 -0.003975228607554626321374 0.000934799891102701006537 0.009769218483803345995375 0.005839867371712751178969 0.004888665550099982430587
262.000000 -0.007471979255508490354309 -0.004180867911193518644819 0.000924959174614372161075 0.010169151773473692618177 0.006082565671957701133876 0.005085162054290057534467
264.000000 -0.007817038504408173327231 -0.004403972644025299157389 0.000911709036386168405856 0.010597873443002095786292 0.006342718034054574058334 0.005295384970987436490386
266.000000 -0.008188752586952563472522 -0.004645849798555831342006 0.000894976173911834495776 0.011058113250694530729779 0.006621768123333319350232 0.005520464512066049385386
268.000000 -0.008588999470891475057632 -0.004907570393353521617796 0.000874919914389585902555 0.011552618466801660435106 0.006921147381959676450625 0.005761569610215656021823
270.000000 -0.009019450881035012343445 -0.005189887096898431785574 0.000851958348443073972336 0.012083996757183548126369 0.007242226738794514326325 0.006019888418286186218542
272.000000 -0.009481525643635392575082 -0.005493210449236387779570 0.000826737181304610453843 0.012654545742278621930921 0.007586280842530121124034 0.006296612931992425117589
274.000000 -0.009976397573606870031182 -0.005817653349950453051109 0.000800051791158407966421 0.013266119362111861157416 0.007954480466088084678056 0.006592935686422070513946
276.000000 -0.010505072929253617478040 -0.006163159365644764985104 0.000772715089480232784035 0.013920059878211462137121 0.008347918740980753496417 0.006910060251258965009769
278.000000 -0.011068534358944767670430 -0.006529706598609338018269 0.000745388589496846776239 0.014617226050456054789461 0.008767672942883162831573 0.007249225649451675364265
280.000000 -0.011667952946201712999263 -0.006917579307990430123598 0.000718391540358386806661 0.015358130317441971365855 0.009214901795132669076738 0.007611747098873140882080
282.000000 -0.012304946228604738203694 -0.007327681718848498039487 0.000691502325718007342104 0.016143175940127096890109 0.009690968493070590758509 0.007999068077335649840087
284.000000 -0.012981878855478086454145 -0.007761882776437138004022 0.000663761364852398093490 0.016972983232095954081453 0.010197586767297640159002 0.008412825844633764482694
286.000000 -0.013702196715978781291212 -0.008223377380571935540976 0.000633281327183189582213 0.017848791899482061018567 0.010736984931745366389499 0.008854927171235801863780
288.000000 -0.014470753597171880783234 -0.008717006871724820166181 0.000597120108724594027272 0.018772967234229803734635 0.011312083212227696041308 0.009327632556415256515070
290.000000 -0.015294016976510886596241 -0.009249388681197696221448 0.000551361711127853430098 0.019749659340845292232469 0.011926655186690313797948 0.009833629909010556044424
292.000000 -0.016179823021972353919162 -0.009828443839371486454026 0.000491792843892772512521 0.020785719015376853679999 0.012585390161538541342612 0.010376054504634472236413
294.000000 -0.017136006363208222680328 -0.010461504572193965761917 0.000415890788104071780235 0.021891852713745874742246 0.013293599479842032121124 0.010958314560336211707092
296.000000 -0.018167063596233927469381 -0.011151074377954395613899 0.000326709342392903911035 0.023083188135753711367482 0.014056000128097878576483 0.011583421506086379396128
298.000000 -0.019268973823343638063221 -0.011888659970378918917522 0.000237564777469293647322 0.024376639280742268267588 0.014873923315278697945829 0.012252500229603198803052
300.000000 -0.020424687753842915571845 -0.012650017563105497506171 0.000173803749423095238967 0.025782537471583030774802 0.015741756487752844168027 0.012963018608427389830040
302.000000 -0.021604154496188389400491 -0.013396377969887565337337 0.000168342638852924590502 0.027293637175581610815334 0.016646078892346000827063 0.013708727672319093171538
304.000000 -0.022770424164856487014852 -0.014083119425840777416692 0.000251797311090212023402 0.028879110466034755427822 0.017569680069313697856614 0.014482283437924268337804
306.000000 -0.023889102703967900198645 -0.014672374939183448205871 0.000441844325507222243817 0.030487720418142502665226 0.018496906833480257492663 0.015277856409468456785894
308.000000 -0.024936059884309032252947 -0.015142649704942714658507 0.000738424827292843716925 0.032060224294506889375356 0.019416000261318979575043 0.016091048219202663122074
310.000000 -0.025898984049677054031235 -0.015489488454097855713032 0.001128294233879221716843 0.033544984153454110442638 0.020318710988909589876261 0.016917484863939201422678
312.000000 -0.026773046965373428762724 -0.015718484551902285606406 0.001594699911369692590241 0.034907409423386229208042 0.021199337282055800979474 0.017752358050394181215870
314.000000 -0.027555518458015904048608 -0.015838136063329261160604 0.002124677776786412699422 0.036130913410258848339485 0.022053913031418102136394 0.018590721020044977118690
316.000000 -0.028243183453345078320895 -0.015857565443767485113824 0.002710225649687339217336 0.037212760345614472046183 0.022879253515883615777149 0.019427438112820043236706
318.000000 -0.028832577277967223750021 -0.015787627273061401872445 0.003345161037489656052218 0.038158228223078322072226 0.023671862311611297641223 0.020256601281096988514951
320.000000 -0.029321168412480697051947 -0.015641479943814644293365 0.004021783059166006424334 0.038975529445036127818014 0.024426901063664477331550 0.021070597864108798341620
322.000000 -0.029707783275512336662594 -0.015433268933900947880722 0.004729510511232814899685 0.039672263256473820625114 0.025137015330241971322600 0.021858764675875733130006
324.000000 -0.029991342241430459653051 -0.015175142114548761940185 0.005456498561459653673378 0.040254303801677028540329 0.025791212974939393964835 0.022606095884564365861014
326.000000 -0.030169077920497257283561 -0.014874332907898789660206 0.006192924801383016195078 0.040726667139732074252034 0.026374397734270655507816 0.023292867909119191471845
328.000000 -0.030236466166280361045349 -0.014532913885935298814456 0.006932641492032795386968 0.041093977037804915730668 0.026867939810802255601319 0.023895653490904108368076
330.000000 -0.030188937488669027875421 -0.014150286218340754965106 0.007671880364796373509562 0.041359283810461021368976 0.027251513156929058068201 0.024389770986852632450592
332.000000 -0.030023734831144534979108 -0.013726159728359615605497 0.008406485120304261343671 0.041522121950184016914154 0.027505998238409882367117 0.024752786233459382614353
334.000000 -0.029741530067551917582147 -0.013262988412848666572308 0.009128833373082430660550 0.041576273059751728267130 0.027616551558732264914919 0.024968234724259703166682
336.000000 -0.029347546821831278773818 -0.012767113622168998685047 0.009825602762465975026362 0.041507595986489217998461 0.027574314810594861141491 0.025027943074706193032908
338.000000 -0.028850253120678358981221 -0.012246756762057574297042 0.010478593351126610014323 0.041293878380856914589447 0.027375466224178565677327 0.024931053507243314953934
340.000000 -0.028257771788478221186569 -0.011707806754558534867439 0.011068907245759179724942 0.040909130184357329895750 0.027019293298158594818226 0.024680992468511658843866
342.000000 -0.027576035509348759827697 -0.011152057985420901070617 0.011581241052304035166198 0.040331792626775900267866 0.026508744947778689615703 0.024284204736200281499192
344.000000 -0.026810203193909500768433 -0.010578976993576202567104 0.012006812579880236230290 0.039554237025007273065302 0.025853216162220152285478 0.023751325076828463944700
346.000000 -0.025965991028384625277647 -0.009987217414740078708091 0.012345696489752467500667 0.038588688665105327912919 0.025069212843958705444480 0.023097433322131103589081
348.000000 -0.025049380058132900833678 -0.009374556425637177448085 0.012607745504615987947039 0.037466345755409032058925 0.024177130827548673486227 0.022339656830142762961033
350.000000 -0.024067028364365968678973 -0.008739433714733941746533 0.012808473902535106453415 0.036228348826925410586242 0.023196749061196914737382 0.021494008609237572060557
352.000000 -0.023027434549612275233033 -0.008083722544266730425377 0.012961197031625987241554 0.034912275409051791996706 0.022143950963926534863946 0.020573359482569612138869
354.000000 -0.021941098354019774457901 -0.007413451862353026382280 0.013071801928078465721006 0.033542918295648552207133 0.021029808414301180696793 0.019587170261611466098861
356.000000 -0.020820546484219933786042 -0.006738667181324662150410 0.013137581642948046103947 0.032131039995195599667799 0.019862407943166238144528 0.018543163223737675615599
358.000000 -0.019680322643327669007718 -0.006073554881761407051033 0.013147526468287309628358 0.030676277936156626235942 0.018650208342918236925634 0.017450049209258182425497
360.000000 -0.018535831704302833944364 -0.005435629028600679965577 0.013083074965580263407383 0.029170329524348153488189 0.017404460080297320945242 0.016319394491995244111937
362.000000 -0.017402185956862364218933 -0.004845227355563066530542 0.012918318913984686360785 0.027598773072552131024882 0.016139134167508766698473 0.015165489796587796472727
364.000000 -0.016294763406992696791464 -0.004327375541842872277987 0.012618090008050020928154 0.025940881035163433632196 0.014869668499992567262113 0.014004436126019269986953
366.000000 -0.015230966739207780352716 -0.003914176620281105238586 0.012136745366564637149676 0.024169978449488115079813 0.013612307600609260815894 0.012853735127623212158854
368.000000 -0.014230049160894380974596 -0.003641476136326210564370 0.011425982031423398063708 0.022260003651046224304455 0.012383539762725844987634 0.011731421470081004193586
370.000000 -0.013307662947668769462539 -0.003534557162999853435065 0.010457264771139384088028 0.020201567611628237775001 0.011198722038025058292399 0.010653729236706125857448
372.000000 -0.012467347938368702336964 -0.003589628205598723465625 0.009247263197625496186638 0.018019317322729249547519 0.010070562067685476931311 0.009632524811102926090567
374.000000 -0.011696185136575143123649 -0.003766205905957134732198 0.007865661599066759226973 0.015776608665034788647752 0.009008616037172397644772 0.008674472936123677618836
376.000000 -0.010968377506779033309092 -0.003995978678876857363711 0.006420580623815990567449 0.013564375748991639586416 0.008019723268990631287467 0.007782119100883679550795
378.000000 -0.010255066865783021845537 -0.004203510332957633398310 0.005029501518712726007565 0.011478896319697657821268 0.007108480873160653509824 0.006955778700138671999387
380.000000 -0.009534602790063040692048 -0.004328595384189424383203 0.003788164659834520470172 0.009597161450950715891328 0.006277200208023823134462 0.006194943741299177922266
382.000000 -0.008796754723526378078047 -0.004337936225038871787540 0.002753057131942424594351 0.007962656240169037683008 0.005525600747486590288982 0.005498506238705341310491
384.000000 -0.008040416027929981127031 -0.004223203485342723502438 0.001942505994474222124832 0.006586123242167913477418 0.004850460989946783416094 0.004863958876949045322113
386.000000 -0.007270214279886756669757 -0.003994141992709500203762 0.001345997528241323548323 0.005453172282038171517216 0.004245605954646698015909 0.004286754487626490660312
388.000000 -0.006494464268943311337223 -0.003672236106686822734030 0.000933957273009738747280 0.004532763978404285958035 0.003702765942187266796914 0.003760740705860637564384
390.000000 -0.005723810415261530205877 -0.003284917240316701479708 0.000667485909551241611906 0.003786264098346309083659 0.003213232990630372331448 0.003279493621851493987546
392.000000 -0.004970270224004608855539 -0.002860776871949718361959 0.000506691480396773987448 0.003175460700445918889312 0.002769459164453742447409 0.002837640872473724991398
394.000000 -0.004246643922453271352557 -0.002426719334870710512858 0.000415698666961150957097 0.002667311480009054974055 0.002365833203365640645399 0.002431466255741246071387
396.000000 -0.003565523556407735987495 -0.002006038906807396018234 0.000365133771256600484119 0.002235770082358078895274 0.001998619125158301347567 0.002058765010399562014887
398.000000 -0.002937916077351179332949 -0.001616719136490662924593 0.000333463013193504328839 0.001862238153721027010892 0.001665626165829034444066 0.001718505686744637231400
400.000000 -0.002372206656671226043809 -0.001270364197139143939974 0.000307323402720210937192 0.001535173560704938561933 0.001366005998370977249715 0.001410690513160598900597
402.000000 -0.001873978758819754963233 -0.000972707701459274518691 0.000280178201640735643346 0.001248567034681367492882 0.001099991686161767628568 0.001136204037861792076960
404.000000 -0.001446360583566246374443 -0.000725226519272462850051 0.000249918521450652692060 0.000999650077427278278483 0.000868305581180364239105 0.000896315831845530784638
406.000000 -0.001090270250630289263286 -0.000526713303143091626096 0.000216739000095656934647 0.000787006836833587159787 0.000671474249899164433476 0.000692004702685271701548
408.000000 -0.000804099004600341117979 -0.000373849942077237608860 0.000182085330092110508123 0.000609532466883004890763 0.000509257898493756873577 0.000523356247407134270860
410.000000 -0.000583126981731390842817 -0.000261261336856208282921 0.000148198391793036944120 0.000465857871720578664652 0.000380235587164594215741 0.000389124474239227067986
412.000000 -0.000419251049892160865783 -0.000181758057029871944541 0.000117501024555603913926 0.000353670775752515224345 0.000281485263234519406811 0.000286398445298643815598
414.000000 -0.000301792015996874614814 -0.000127365094731728860974 0.000091716768784329153006 0.000269175319700762144190 0.000208586555182002988951 0.000210629661764258997378
416.000000 -0.000219525875925631678816 -0.000090765333974553418775 0.000071402641066891511736 0.000207381877601580571005 0.000156236325686588022662 0.000156300211452471124246
418.000000 -0.000162713907493667518612 -0.000066338652936039573557 0.000056062935907448511346 0.000163052446281852168311 0.000119297255414902098405 0.000118045536652020834848
420.000000 -0.000123875171992570890346 -0.000050182546592885395747 0.000044697870616672629254 0.000131518113837959360179 0.000093486112923536792405 0.000091396076216940233604
422.000000 -0.000097532779897612623446 -0.000039581008631433661207 0.000036376982953811626449 0.000109164983238323537386 0.000075551356298925932578 0.000072957037692515652868
424.000000 -0.000079739040890085767965 -0.000032640626143656555731 0.000030335474390332660313 0.000093295038405252712953 0.000063108177680236795170 0.000060239370506775749168
426.000000 -0.000067674329711058927314 -0.000028046791935298899073 0.000025983231986188317747 0.000081945834992173293343 0.000054428649327515409386 0.000051438964856910620097
428.000000 -0.000059358713711771089673 -0.000024914598404809193448 0.000022845962818917881220 0.000073678569484939248875 0.000048283024434254470235 0.000045273914265430769495
430.000000 -0.000053448390845892306314 -0.000022677094299924219537 0.000020563551383309059740 0.000067487611150487055735 0.000043807266771360152163 0.000040840001586554349107
432.000000 -0.000049066788820116201636 -0.000020982654429808684002 0.000018866364212131799699 0.000062672535080356283504 0.000040415433677442222610 0.000037526033084737843296
434.000000 -0.000045651403638458534046 -0.000019628229525879784131 0.000017549745913893556105 0.000058758808969903870967 0.000037722879770539414514 0.000034932119343534563400
436.000000 -0.000042857065958325200081 -0.000018481080424608241759 0.000016493802002089647229 0.000055445598546943598395 0.000035486511437942430572 0.000032804110412676980031
438.000000 -0.000040464511747585426606 -0.000017476823832492150871 0.000015606086387834598744 0.000052546466565460177441 0.000033555896307917812166 0.000030985335546974600784
440.000000 -0.000038347783256329827947 -0.000016567973493118547243 0.000014835685084755778485 0.000049936248520445702351 0.000031828635536333982358 0.000029370660045562546424
442.000000 -0.000036427873113898938287 -0.000015736124387699094876 0.000014136635953823757934 0.000047519459440117722219 0.000030247071355273151197 0.000027899928538258474088
444.000000 -0.000034648935704277872033 -0.000014947175389694891635 0.000013505986696250134725 0.000045271041153048248266 0.000028779634501524834557 0.000026540315711868574429
446.000000 -0.000032995078500932037554 -0.000014224990936947277934 0.000012897029441732043887 0.000043139810452405545919 0.000027403468538484789446 0.000025269729705381081965
448.000000 -0.000031431322769167714204 -0.000013543345121930376842 0.000012311399434126363598 0.000041101246759626050022 0.000026096121883786133587 0.000024065375147956072946
450.000000 -0.000029960105039548871262 -0.000012903603741782582550 0.000011757644882072131479 0.000039179088928761231377 0.000024862171837420113905 0.000022928874382747658621
452.000000 -0.000028557320610261752831 -0.000012294060877719919578 0.000011218112290077396484 0.000037335959245717980628 0.000023687247384436041465 0.000021846950505283328000
454.000000 -0.000027232351293074154942 -0.000011738094018038043223 0.000010671365881944470767 0.000035552505020258509910 0.000022565599843861818707 0.000020815554043060476952
456.000000 -0.000025968169648708780065 -0.000011223772260259417150 0.000010125780621959866635 0.000033830677204150537483 0.000021491148516904901570 0.000019828360476350104930
458.000000 -0.000024758071153150448335 -0.000010712566690742288656 0.000009629242437501499995 0.000032207788162547588398 0.000020473668487515392329 0.000018892401187413840731
460.000000 -0.000023602170838670828322 -0.000010235596125276633458 0.000009135712507640566331 0.000030642004084610466666 0.000019496047278899180489 0.000017994731873718358217
462.000000 -0.000022503632803610579125 -0.000009781957060613221560 0.000008666784505097687236 0.000029149163963959002425 0.000018569154000742365954 0.000017142906419320202494
464.000000 -0.000021445040335489158953 -0.000009334062819129739229 0.000008229800018786217068 0.000027733786508399641251 0.000017681051603696944523 0.000016325195336355404873
466.000000 -0.000020431917995363334088 -0.000008907850064557269748 0.000007814184621282529200 0.000026388311877388659409 0.000016831805153488499881 0.000015543060204754891382
468.000000 -0.000019463296025585588545 -0.000008485385334091469028 0.000007448422219645026539 0.000025137948763309540866 0.000016028816094392259157 0.000014801614166398461043
470.000000 -0.000018523808460290479131 -0.000008069242316589326927 0.000007094219243985699242 0.000023926923154731675016 0.000015253265585282769375 0.000014085919160971007379
472.000000 -0.000017632243862047058193 -0.000007673967081298574077 0.000006764227812825017772 0.000022782527003610015127 0.000014520725477887216757 0.000013409919256607207111
474.000000 -0.000016785574078133784671 -0.000007301072376710885132 0.000006444158323265438711 0.000021685185408648097020 0.000013827838292694639410 0.000012770096108508456723
476.000000 -0.000015974050656122562938 -0.000006950838352199229568 0.000006126163955116293924 0.000020626127935314847206 0.000013159054674271919222 0.000012154549587019967784
478.000000 -0.000015204486493547743060 -0.000006618524542276914249 0.000005822501172062205426 0.000019621427056959308622 0.000012521786653260216023 0.000011566900240010444104
480.000000 -0.000014463419868317858380 -0.000006294640258041669759 0.000005540948874203353778 0.000018666104337341010228 0.000011913263491199432799 0.000011005832986267934895
482.000000 -0.000013752760360534627769 -0.000005974384507995601411 0.000005293602833127280280 0.000017783226950162017900 0.000011331669890297293432 0.000010466798475919853186
484.000000 -0.000013089980092970944788 -0.000005691381420494691159 0.000005030733498425657065 0.000016926267879610004430 0.000010785270270151098648 0.000009960385102727084528
486.000000 -0.000012450838865119382654 -0.000005406962631081463962 0.000004792878315729060418 0.000016102221800952126079 0.000010265696423931121371 0.000009480577000761556224
488.000000 -0.000011841941326503025185 -0.000005142611044255636600 0.000004561973182654505775 0.000015315463515634584427 0.000009758300307298946487 0.000009011886462329084452
490.000000 -0.000011263494728138976258 -0.000004878094323128809769 0.000004360371875086601860 0.000014589170771077151963 0.000009286937846946712881 0.000008575436632374196276
492.000000 -0.000010724379244575995811 -0.000004653694655410748089 0.000004139448982318879673 0.000013878256851870489867 0.000008832292664524923027 0.000008154756469583207386
494.000000 -0.000010202966859223247957 -0.000004433913804038382992 0.000003925339875880354634 0.000013189848001706424067 0.000008400993016396844025 0.000007757365297737726150
496.000000 -0.000009702540087210619087 -0.000004208350382896177822 0.000003739456208494442259 0.000012550541565588064751 0.000007995752365345809310 0.000007382900018310580652
498.000000 -0.000009240831851087881495 -0.000004007207049645004568 0.000003560291785652025405 0.000011951141256806647648 0.000007616258439524852045 0.000007032050630699743059
500.000000 -0.000008798747712652367408 -0.000003826193801268561705 0.000003361327051606769815 0.000011348340363191599097 0.000007251540435508073422 0.000006695801056476728707
502.000000 -0.000008375512498505105992 -0.000003644036700468488740 0.000003200516910286249950 0.000010801797514672017040 0.000006897707745267474028 0.000006369572984958660254
504.000000 -0.000007980554422659754310 -0.000003485334982345374675 0.000003036020502233001683 0.000010281635671244134658 0.000006564672279581753175 0.000006062241723219885521
506.000000 -0.000007590164544722491898 -0.000003312704462737888461 0.000002882920496838374347 0.000009772437470447341390 0.000006243357976849022032 0.000005764874654643514037
508.000000 -0.000007229615943345171976 -0.000003157984127284900168 0.000002743664645248255676 0.000009311289893043856589 0.000005951519804582457920 0.000005494427951779084525
510.000000 -0.000006884495675473289387 -0.000003009953967166154374 0.000002604568966305984607 0.000008859887095821370349 0.000005667270305248050315 0.000005231303469212850045
512.000000 -0.000006554637566539576081 -0.000002869286189268299359 0.000002473986283040752717 0.000008428581066881776334 0.000005391072174992663326 0.000004975280749405739770
514.000000 -0.000006236765478003696104 -0.000002729810032794488602 0.000002357278008624932567 0.000008025662667489759825 0.000005127348587402126543 0.000004732297875709543841
516.000000 -0.000005933914612397671926 -0.000002587850655458518068 0.000002262863443882221261 0.000007657569146741508581 0.000004882593119332864235 0.000004507314482400318615
518.000000 -0.000005669906177921446045 -0.000002485286805869693665 0.000002143394315866637856 0.000007297010178597997686 0.000004658000716985180391 0.000004299454280463598328
518.780000 -0.000018489298397257067044 -0.000020150346936230112611 -0.000017005225299854341802 -0.000009409176982574411359 -0.000002769770257813683286 -0.000003447999363324626836
520.000000 -0.000005400041252696554263 -0.000002357384554118647034 0.000002058155313596416273 0.000006971395066852913439 0.000004449251253646159083 0.000004105148661395423888
522.000000 -0.000005143132583752085712 -0.000002249006151720626363 0.000001948915016577369775 0.000006632345043478294126 0.000004240892178634966098 0.000003913592957310395084
524.000000 -0.000004887175334191210144 -0.000002136660206124647333 0.000001854406668557397472 0.000006309873765513395934 0.000004032264185505403719 0.000003721278973151879480
526.000000 -0.000004663686341406115269 -0.000002058421794690865616 0.000001735998490221079632 0.000005989292417397168142 0.000003839091196591715246 0.000003543251505948206984
528.000000 -0.000004433474042485413041 -0.000001934582199118704877 0.000001681208744388057399 0.000005719221076503855036 0.000003661747415379256219 0.000003378888343989388819
530.000000 -0.000004218018625084202072 -0.000001831295312545317570 0.000001612184810331647021 0.000005448973224701699150 0.000003484768048012988194 0.000003215067588872267423
532.000000 -0.000004020489618964613100 -0.000001749645694528570897 0.000001533179174859969089 0.000005194788479532261991 0.000003321030720797377015 0.000003063699836647551849
534.000000 -0.000003836251451134603044 -0.000001677313846759369965 0.000001446536691621654892 0.000004938174017785160241 0.000003165091397731980052 0.000002920473831447582664
536.000000 -0.000003647896140131525815 -0.000001589285836697715063 0.000001391754443260487594 0.000004725763207146221365 0.000003014244853331197769 0.000002780285207735315761
538.000000 -0.000003478987833031868212 -0.000001514415618427262017 0.000001335587554831226179 0.000004518902325020468461 0.000002873780930085832370 0.000002648592317317037142
538.720000 -0.000003421604839869859496 -0.000001488160248635986647 0.000001313847032652983584 0.000004440955605299947200 0.000002826533382099833982 0.000002605237329948814385
