0.000000 -0.000000000000000000000000 -0.000000000000000000000000 -0.000000000000000000000000 -0.000000000000000000000000 -0.000000000000000000000000 -0.000000000000000000000000
2.000000 0.000308424182138428539315 -0.000333019149902685524401 -0.000433599741160005012174 -0.001069585045975259907439 -0.001369912996345003936005 -0.000357152628406420932696
4.000000 0.000721615854785039403420 -0.000378343676818695983689 -0.000655331616297835889244 -0.002156699925166594145054 -0.001943080471076352646470 -0.000388182398648613785196
6.000000 0.001298048408837791743015 0.000268169912722379568792 -0.000235826624291481996192 -0.002502779811644950148930 -0.002415206817798124395297 -0.000519419351475489902287
8.000000 0.002222116663345592105921 0.001306752073965550048004 0.000472195151498937758759 -0.002975279368889048158681 -0.003347275468546156117211 -0.000787650041632736953520
10.000000 0.003743078419535940219720 0.002889464663843093351209 0.001601916068904551872926 -0.003866891092682958434856 -0.004953882640270400664062 -0.001168073443899836534599
12.000000 0.005319132468777905235757 0.004212907069498124379425 0.002397423319400943716312 -0.005526118151568558921338 -0.006901837059803777457700 -0.001598449787235275282304
14.000000 0.007330559245654466767050 0.005603335378033961859667 0.003069042624107855797566 -0.008282186064954641033231 -0.009864153988177191620390 -0.002376982273442228201649
16.000000 0.009850424867990198798950 0.007445499675706042722045 0.004072646719735399829798 -0.011585868552983314555549 -0.013556460248075538621571 -0.003416380867147513628046
18.000000 0.012658543536021839293060 0.009371313191542636825138 0.005015170653566084282837 -0.015285875868070394195675 -0.017554432588661329772695 -0.004638509405943944986783
20.000000 0.015326711169201865866962 0.010849366821747651740138 0.005405651080269355431007 -0.019501657009735138409434 -0.021520371458017988064437 -0.005837710030460932682239
22.000000 0.017781463713229795492454 0.012016267854540676682240 0.005524006624920966244952 -0.023564738375087386501594 -0.024918113252916877092824 -0.007045781667699571940156
24.000000 0.019809370073728193445417 0.012580443928267081438177 0.004927105437737609380799 -0.027691210077662342659011 -0.028334087987012316484092 -0.008363585081428617090671
26.000000 0.021627294740975133713334 0.013037548229052257561800 0.004135260925200624423925 -0.031119159100560938452373 -0.031299246120866118514581 -0.009756384254237531958309
28.000000 0.023617032719384443983923 0.014405931109817946694784 0.004347559274905632084596 -0.033230041975200616533037 -0.033635440741953827326061 -0.011016321286518708857938
30.000000 0.025423899771006761710845 0.014632057939746451191709 0.003357017436788789065821 -0.036245129543281448536440 -0.036263609030071919381299 -0.012564706540130055403837
32.000000 0.027424949807489211461853 0.015538444391915604350651 0.003149179048205741696109 -0.038762074511030843171344 -0.038456948777959354401901 -0.013924316832570586208173
34.000000 0.029212184618285074594324 0.015620093477575376639255 0.002025582818751317775580 -0.041403722242270700470979 -0.040939274460606522865191 -0.015554706477050601887147
36.000000 0.030967653622146623648703 0.015684969406581095174857 0.000794383920665479685563 -0.044241786430567392462976 -0.043483118966712371034067 -0.017250526234545815462695
38.000000 0.032656619287400538709232 0.015844973132673717541863 -0.000362049630447109965694 -0.046658055523432072353440 -0.045839810138260599081672 -0.018919392734540269040977
40.000000 0.034324655927173264302610 0.015734165915416886000200 -0.001652686242823200131122 -0.048983075090613600877099 -0.048360382061250484220238 -0.020942934677556524630804
42.000000 0.036029601179273056110741 0.016137688718232571366551 -0.002456833563767633985681 -0.050766706700251428008297 -0.051069986332314527832654 -0.023284529468242540217737
44.000000 0.037392895275027468460216 0.015932474611229600208739 -0.003639257865400027588954 -0.052810981620835445449202 -0.053458405277977183445159 -0.025463245628652618479659
46.000000 0.038475467025949269816998 0.015133604508813758640628 -0.005256643714713415266315 -0.055010107445381727087064 -0.056232626338652419439867 -0.027861056302758788888463
48.000000 0.039712349706124819292974 0.014840507975786423194853 -0.006343205662439533980279 -0.057144382766778675786234 -0.059102484691950465944821 -0.030318072891277504654628
50.000000 0.040795708199387506476263 0.014072429049154722840997 -0.007901985754903055256260 -0.059385703800743996905176 -0.061873487278588754079145 -0.032697307083031999785927
52.000000 0.041612681916400197368322 0.013902296127662147964821 -0.008593832509784925244301 -0.060720729362231280756834 -0.064016017822705426065788 -0.034724121469564307729261
54.000000 0.042075444770150176310164 0.012393982595731640669601 -0.010626013768083799812536 -0.063194685436284078750013 -0.066484210407115995611349 -0.036657232533077024894119
56.000000 0.042297033977699433071606 0.011675738053995524806661 -0.011748364460434495074037 -0.064777544205185125236746 -0.068112568664608783008951 -0.037897389148065264985465
58.000000 0.042746034906201713088336 0.009903140820673568545107 -0.014112166624873752340807 -0.067750539759668035322271 -0.070189737509444349861099 -0.039035127082282440602601
60.000000 0.043218623952101284380056 0.009112627405256883486584 -0.015310836950137247935988 -0.069321397775459966950073 -0.071488922545584143719566 -0.039826148829720069144411
62.000000 0.043101132982901323165148 0.007110464969943384658246 -0.017701390651797994923999 -0.071193271368636110163486 -0.072357287892497609838038 -0.040427483647404782729495
64.000000 0.042878411993151843706329 0.006573959489010324300229 -0.018327727972706615161558 -0.070587045524726749201605 -0.071554306064995840119813 -0.040389437163894356674909
66.000000 0.041873377196305544556409 0.004462498025235480877959 -0.020290008021156515777284 -0.070516922845599239177972 -0.070085296906534713667902 -0.039894125031746323351012
68.000000 0.040851304711275585046515 0.003560233669506327434939 -0.020785253165200984898364 -0.068720939445835182990407 -0.068039313430626552348102 -0.039218253407345346484014
70.000000 0.040037501531341494753757 0.002457215255867059751360 -0.021424420986079814599456 -0.066691703825884504630572 -0.065715496233585884988671 -0.038414382355695261828110
72.000000 0.039164059188248320775294 0.001673264297172359898330 -0.021631890326067396146392 -0.064185191135840660714429 -0.063380092642463720098434 -0.037556626182325726637234
74.000000 0.037382453207458053723311 -0.000496100989547162496765 -0.022904164550748000450664 -0.062683993840048191081848 -0.061106886671891832985004 -0.036542074093020668335008
76.000000 0.036025320263974924817063 -0.002823354112066605269005 -0.024419445203484407835859 -0.061784502524366943787548 -0.059131225968919003121993 -0.035617097222096057163032
78.000000 0.034394492952326854995349 -0.004852822129233509869384 -0.025395637883895608166718 -0.060127917819969331492125 -0.056737852114839282258174 -0.034418416245457800206609
80.000000 0.032518015265527999702044 -0.007377451260437469481024 -0.026830551304847703730783 -0.058820785373638800885843 -0.054526977304526574874544 -0.033263063322640576413569
82.000000 0.030663808433074767750837 -0.009773140649219726194818 -0.028078371537077057712439 -0.057420461960005268753360 -0.051624666703558738656277 -0.031621515502779147521739
84.000000 0.028832418112185301262151 -0.012427354081629459967018 -0.029410933185786747312562 -0.056075062651684402792451 -0.048550436232085415755311 -0.029819077695407265882199
86.000000 0.026440623838361806963171 -0.015283014564342958796495 -0.030624044455520919166824 -0.054106757564378021863050 -0.044280156340625494160168 -0.027049124129563655721809
88.000000 0.024425187573822768061227 -0.017762274185727039421678 -0.031323260249882335648497 -0.051831444177646415760741 -0.040226362976144326710770 -0.024518349893303176267878
90.000000 0.022369929976410362487682 -0.020776351431436031191868 -0.032358485755352855983702 -0.049882739384700038043352 -0.036414035969991882801811 -0.022193890836987827108739
92.000000 0.021232650783194272070542 -0.020001004605213212189652 -0.029933744846297530295409 -0.045389365498574432700174 -0.032575509119693098203374 -0.020147425410017641422833
94.000000 0.020726096927465055552720 -0.016942372305333713855546 -0.025732341483221676803339 -0.039882727307570926822411 -0.029025796808562653872343 -0.018397910596809660677131
96.000000 0.020636290657255456498786 -0.012766647217163374847249 -0.020686642242097454807981 -0.034023133901534115264287 -0.025613896394135322182040 -0.016764797821090780122200
98.000000 0.020813415591737563503649 -0.005679219342274104999346 -0.013217700986373547705766 -0.025721119230865754218263 -0.021940323920086268749685 -0.015232141071012601438173
100.000000 0.020503498722035266854657 0.000864010988859537673416 -0.006152715460085257659362 -0.017863422987089191962262 -0.018258426147387315369164 -0.013509861115545727244802
102.000000 0.019309312578850896385818 0.003513740443799931272018 -0.002643643740778818269216 -0.013299948312189132856864 -0.015468924785728683721220 -0.011981362614444976411043
104.000000 0.018020420585515815187216 0.004499757256208850204893 -0.000778086034059690062961 -0.010331836892797097160468 -0.013179398547241387776308 -0.010603292306398264671641
106.000000 0.016585247546862687956226 0.004899879257658672389308 0.000296990297713299394259 -0.008105270107670892523744 -0.011324916632383592515754 -0.009444192679247885927052
108.000000 0.015332247631319398037397 0.004837613180256768001530 0.000776656861692617784751 -0.006598597303050217181830 -0.009895633223782370271882 -0.008518343259694026101125
110.000000 0.014055774982854403812316 0.004324494531730132054759 0.000737631327084291277783 -0.005741337399574936509183 -0.008730846699799052479385 -0.007648445805135235635308
112.000000 0.012578127701056594431317 0.003636014245198827734423 0.000533669931771374971008 -0.004994571136754183231232 -0.007621105981863053949188 -0.006810175761800916528765
114.000000 0.010792678832931244803373 0.002607042616554952011582 0.000068506556565770004331 -0.004351575726808847369154 -0.006473889078816423905960 -0.005925015412496990180324
116.000000 0.009252472787564275380490 0.002033925507907637184740 -0.000044369691702361710515 -0.003549020923084034509487 -0.005381951608924894284169 -0.005097604332396261060667
118.000000 0.007703416747874092772308 0.001410652377990792398499 -0.000195091482578936439678 -0.002776721904789017369986 -0.004275657421348891956692 -0.004240623717508865478387
120.000000 0.006225841928266231430078 0.001056506177608023365477 -0.000124105995694262315589 -0.001874286006033207101218 -0.003156831487716376533070 -0.003376690440746613584844
122.000000 0.004924975549398046860416 0.000846168398499200224983 0.000033659310351087396579 -0.001006200817352091020362 -0.002118390460263759340204 -0.002563058203473644186543
124.000000 0.003712746458336817559354 0.000748991374401574913633 0.000277109634061829888507 -0.000122096721467606771517 -0.001104053238416477988534 -0.001763476379827057542379
126.000000 0.002621566578751025923533 0.000513588487287888685769 0.000355757561694059159900 0.000511290669774404631272 -0.000260821086545637954249 -0.001072733345728598504040
128.000000 0.001654215160193097181041 0.000366032997407463663204 0.000463596673687118390750 0.001098865285758366490063 0.000460517001541437464782 -0.000495099382378781996406
130.000000 0.000751799947176203615593 0.000139923716761040597576 0.000469491860956031939380 0.001541614240557882169538 0.001075710479274836735633 0.000012430883746748728818
132.000000 0.000030020676909075250804 0.000001177920006281149000 0.000517229058003168583671 0.001930803055119850123594 0.001588925957486803097751 0.000433401233624276370927
134.000000 -0.000563947308542568420328 -0.000094018772098850803432 0.000567806631503365785707 0.002266785189366354088397 0.002008792689431906225428 0.000772428614028195935533
136.000000 -0.001072720785771502649553 -0.000207803622218813882931 0.000577885967721398661687 0.002512579424256886160421 0.002342357085160175125121 0.001044665173074917205107
138.000000 -0.001391021358935600957252 -0.000234265375925210659475 0.000630489967410342942028 0.002723028940372712591866 0.002584500355605060147035 0.001234103601714534384493
140.000000 -0.001706610645173480510228 -0.000342771641004145232075 0.000596417502949027713600 0.002833920295226719562182 0.002755984105557223937111 0.001370017143536082174921
142.000000 -0.001777880365330274624325 -0.000341963563278079268719 0.000622516721444779392441 0.002913296019412714172453 0.002831614332601052694965 0.001418070202193885990735
144.000000 -0.001838550821040079016541 -0.000345710350694574558052 0.000641183957378101956545 0.002980298593409801480303 0.002897736671641211979311 0.001459897146608098855713
146.000000 -0.001900795711633106871430 -0.000353318668363547755493 0.000655768403604430950328 0.003042441135085073664751 0.002961923200852398067873 0.001501267561818752900929
148.000000 -0.001961643202923740638560 -0.000362817293954943427634 0.000667570668601231488083 0.003100216988278048629163 0.003023132584000670294855 0.001540870639266668420259
150.000000 -0.002019782482740171969393 -0.000373309427941469370010 0.000677286774939447281524 0.003154054168278811343812 0.003081076355312437758949 0.001578201706371110688357
152.000000 -0.002074542304584434896514 -0.000384229719649501106921 0.000685437155109907018599 0.003204429318396527850976 0.003135777357959081395461 0.001613078354409869285060
154.000000 -0.002125661232154372158598 -0.000395224234562443100128 0.000692417931390430026369 0.003251841738109435657467 0.003187443695915222890980 0.001645514262350178955399
156.000000 -0.002173174107943463134740 -0.000406085512642928472653 0.000698535932046156528286 0.003296799597457098982001 0.003236409795840467298889 0.001675660866825841831262
158.000000 -0.002217331061426230758016 -0.000416718901629715174177 0.000704022012858390678833 0.003339804336253672512047 0.003283087380990190422281 0.001703759208763776233919
160.000000 -0.002258515373134878899408 -0.000427104372878714161257 0.000709051803868832649508 0.003381337939915148634723 0.003327927034460687830825 0.001730102085724258059382
162.000000 -0.002297181055784996983604 -0.000437268236267126023369 0.000713759954952089418004 0.003421851525347587106435 0.003371387078699369932444 0.001755003469872421124898
164.000000 -0.002333809108897445805386 -0.000447270424830173202093 0.000718245075521553371853 0.003461758360712940095494 0.003413911211743450406508 0.001778775784466619935831
166.000000 -0.002368872332704997397956 -0.000457182646721066769484 0.000722584574232172302533 0.003501434785982782214170 0.003455916722019308339603 0.001801716374127877197397
168.000000 -0.002402817245828195707319 -0.000467083067864168522115 0.000726837530606670506259 0.003541218569764778383024 0.003497786773604096271367 0.001824099563556471053499
170.000000 -0.002436051198614026108702 -0.000477048766425687391108 0.000731050836093770405391 0.003581412376569779662527 0.003539868274260420197980 0.001846172424392183378933
172.000000 -0.002468942264301964006901 -0.000487155759095174271944 0.000735259811200285806274 0.003622284294833849095652 0.003582472805944381284704 0.001868154768918535088562
174.000000 -0.002501816363681055779139 -0.000497476121191092052198 0.000739491268616635335012 0.003664074617802726748644 0.003625879777968389616749 0.001890240629271710106132
176.000000 -0.002534960236378436520405 -0.000508071762893594130669 0.000743772035738726831205 0.003707005075698393929684 0.003670342347187259893215 0.001912601353840556132196
178.000000 -0.002568631187695393988668 -0.000519012205010200124503 0.000748113286103105627929 0.003751269124915413300664 0.003716088092947939913041 0.001935387410745332712955
180.000000 -0.002603053688144171557567 -0.000530353879150242631980 0.000752531297229843245192 0.003797052140394197982526 0.003763327061707811508479 0.001958732836559410207117
182.000000 -0.002638431141462062225894 -0.000542151493478557002133 0.000757038824534452784061 0.003844528630169344058515 0.003812256524362994409422 0.001982758820969134951062
184.000000 -0.002674947555520119923944 -0.000554461548468994413000 0.000761642570054051363734 0.003893862326804800339658 0.003863060353690691076101 0.002007574470821647111274
186.000000 -0.002712773011167089742823 -0.000567338858832641635896 0.000766348832365156213201 0.003945213912457660142274 0.003915918127524887354385 0.002033282003927282949318
188.000000 -0.002752067663803238906778 -0.000580837720506813888662 0.000771162239249301943028 0.003998742655122805404744 0.003971005912863140654978 0.002059977848569898104675
190.000000 -0.002792984829456379106821 -0.000595012498428311984756 0.000776086969924116875687 0.004054608753135126655853 0.004028497881551048979965 0.002087754304626815351348
192.000000 -0.002835673737222110975253 -0.000609916623532957748871 0.000781128189574595353621 0.004112977812832650445496 0.004088572469301985680412 0.002116702571670141166255
194.000000 -0.002880284704161904883041 -0.000625613506616021393392 0.000786283132079910302391 0.004174014898012210796063 0.004151410821846804495572 0.002146913194774626842259
196.000000 -0.002926967619771640195803 -0.000642162675663729117306 0.000791554304830868532203 0.004237897153637355460165 0.004217202081550865643000 0.002178478455402370513039
198.000000 -0.002975878063278715977835 -0.000659630828547571397731 0.000796939349461491843007 0.004304806678642086534281 0.004286142339961579450502 0.002211492143380691666188
200.000000 -0.003027176707342827451791 -0.000678086854755075691369 0.000802437642908393001032 0.004374937782173173202172 0.004358439846642561156520 0.002246052783607239543978
202.000000 -0.003081030552885455960771 -0.000697604699462077665166 0.000808046543168627461745 0.004448494849245915663816 0.004434313433561500560065 0.002282262483193716988417
204.000000 -0.003137616672656729551599 -0.000718265653400024456712 0.000813761127729237970264 0.004525695301374037422815 0.004513995853331567546796 0.002320228813909833761459
206.000000 -0.003197122738751696693210 -0.000740153083572127204817 0.000819578563855038132700 0.004606772993607444882658 0.004597735621663390399860 0.002360065932925315291407
208.000000 -0.003259748262196024686660 -0.000763361811784241117707 0.000825490607644572584045 0.004691973784416246691376 0.004685797288824735187807 0.002401894944541461442145
210.000000 -0.003325706366342024312283 -0.000787989962923062474062 0.000831491192082053237090 0.004781564571246691743023 0.004778465046759911884211 0.002445845259001004981525
212.000000 -0.003395224544524542281687 -0.000814146223268384650051 0.000837570628008127318447 0.004875828155036148435497 0.004876042414124642267181 0.002492054813072314828348
214.000000 -0.003468546957535989603422 -0.000841945815371845755759 0.000843719660733853742303 0.004975069247315617136651 0.004978854164262126041907 0.002540670892952466824316
216.000000 -0.003545934685022538411514 -0.000871513007481075413149 0.000849927337314013197148 0.005079613764357298992536 0.005087249340448984392948 0.002591851893506026162373
218.000000 -0.003627667729242668205603 -0.000902981277996913324173 0.000856181953665712176284 0.005189811132132002291506 0.005201601649800500007381 0.002645767281727385601686
220.000000 -0.003714047301748903042590 -0.000936497160857436856257 0.000862467743845313477430 0.005306034632688130456279 0.005322311640826696971240 0.002702598868727817179453
222.000000 -0.003805394969708593075342 -0.000972214380344922331559 0.000868770670494466851208 0.005428685191916245850186 0.005449808138778830871041 0.002762541498267804054856
224.000000 -0.003902055383433119650077 -0.001010297869075837831968 0.000875075458783985634693 0.005558191813439403161645 0.005584549217858612510379 0.002825803591811566328057
226.000000 -0.004004397820523976705975 -0.001050927344428455485759 0.000881363375920249489566 0.005695011414420408403514 0.005727025430329363460402 0.002892609423437620015662
228.000000 -0.004112815673303062309618 -0.001094290525889778271929 0.000887617767693869136846 0.005839632519858035074323 0.005877759087327003896528 0.002963198439477282477433
230.000000 -0.004227728357339686528216 -0.001140587811171416910208 0.000893821131249927423000 0.005992575303789240276364 0.006037306579648603517552 0.003037826648246382335583
232.000000 -0.004349584555946602211496 -0.001190036190725290814185 0.000899951516720543919642 0.006154389850503659380176 0.006206259856053042249513 0.003116768217474373374454
234.000000 -0.004478861899946212817014 -0.001242864798849220272017 0.000905988049473621854558 0.006325662068076554067630 0.006385248160047834846409 0.003200315941248345341652
236.000000 -0.004616071272833519034684 -0.001299322231917240727181 0.000911903516670154400646 0.006507009744823534676261 0.006574939825791111837339 0.003288782304988223121472
238.000000 -0.004761759985047302363992 -0.001359676701144112154207 0.000917665825350691562699 0.006699087782348422427658 0.006776048038853494867584 0.003382501985130617703362
240.000000 -0.004916519028171991052834 -0.001424225500096160763538 0.000923230277564934505644 0.006902588719683784221348 0.006989335099906926647428 0.003481833390227382241805
242.000000 -0.005080992654765179028509 -0.001493301616633571290982 0.000928534654328570883269 0.007118248582808374240460 0.007215621190017183599064 0.003587161191047995734832
244.000000 -0.005255888158993027303723 -0.001567282411065698544128 0.000933493416189544716194 0.007346856869584008666030 0.007455798626048827822121 0.003698900588733103692030
246.000000 -0.005441996367350571996158 -0.001646611959129133618759 0.000937980945697170897385 0.007589264162959893054994 0.007710848494966426533437 0.003817502650826766572717
248.000000 -0.005640207011880552477601 -0.001731807218041632413438 0.000941829247480381170216 0.007846407487168359159990 0.007981865747574617975246 0.003943460603231889113895
250.000000 -0.005851534538555779214886 -0.001823481097002297313808 0.000944812728092885413880 0.008119331786489341132307 0.008270085563127679839646 0.004077317144186096663228
252.000000 -0.006077139430996756144787 -0.001922351915796288723826 0.000946646080977499543123 0.008409226109878360430616 0.008576915950310725136885 0.004219673656923174018263
254.000000 -0.006318349290504876245023 -0.002029258691224606562381 0.000946978333256652538008 0.008717455031837011147910 0.008903967932235398730079 0.004371199544053186274162
256.000000 -0.006576672131859816021471 -0.002145155616664152185835 0.000945405855221783221823 0.009045599872522139262010 0.009253079799040058936455 0.004532640163796408834529
258.000000 -0.006853797110205382160653 -0.002271101025008431719548 0.000941490421130004688510 0.009395488605537748866281 0.009626330620896222239891 0.004704824076416180486659
260.000000 -0.007151575346079423224632 -0.002408219182347012994605 0.000934799891102701006537 0.009769218483803345995375 0.010026032067167713057732 0.004888665550099982430587
262.000000 -0.007471979255508490354309 -0.002557647919064513428178 0.000924959174614372161075 0.010169151773473692618177 0.010454691248577254597540 0.005085162054290057534467
264.000000 -0.007817038504408173327231 -0.002720471303328070040300 0.000911709036386168405856 0.010597873443002095786292 0.010914939085664003906584 0.005295384970987436490386
266.000000 -0.008188752586952563472522 -0.002897633439248584272946 0.000894976173911834495776 0.011058113250694530729779 0.011409427308780917265096 0.005520464512066049385386
268.000000 -0.008588999470891475057632 -0.003089870253990895359458 0.000874919914389585902555 0.011552618466801660435106 0.011940701954965186534774 0.005761569610215656021823
270.000000 -0.009019450881035012343445 -0.003297657028534670565351 0.000851958348443073972336 0.012083996757183548126369 0.012511076182404918741287 0.006019888418286186218542
272.000000 -0.009481525643635392575082 -0.003521214394331322310866 0.000826737181304610453843 0.012654545742278621930921 0.013122533940958318668391 0.006296612931992425117589
274.000000 -0.009976397573606870031182 -0.003760566704781759771181 0.000800051791158407966421 0.013266119362111861157416 0.013776700707123314126878 0.006592935686422070513946
276.000000 -0.010505072929253617478040 -0.004015666288448406853751 0.000772715089480232784035 0.013920059878211462137121 0.014474898991115502100424 0.006910060251258965009769
278.000000 -0.011068534358944767670430 -0.004286567725008728207969 0.000745388589496846776239 0.014617226050456054789461 0.015218295240858747616186 0.007249225649451675364265
280.000000 -0.011667952946201712999263 -0.004573643015267741564200 0.000718391540358386806661 0.015358130317441971365855 0.016008136297718859181183 0.007611747098873140882080
282.000000 -0.012304946228604738203694 -0.004877821895261784911069 0.000691502325718007342104 0.016143175940127096890109 0.016846054664093831204630 0.007999068077335649840087
284.000000 -0.012981878855478086454145 -0.005200851111511064529813 0.000663761364852398093490 0.016972983232095954081453 0.017734430221110028536025 0.008412825844633764482694
286.000000 -0.013702196715978781291212 -0.005545566523687074644844 0.000633281327183189582213 0.017848791899482061018567 0.018676797798061597899455 0.008854927171235801863780
288.000000 -0.014470753597171880783234 -0.005916119209949626325806 0.000597120108724594027272 0.018772967234229803734635 0.019678290893462142135961 0.009327632556415256515070
290.000000 -0.015294016976510886596241 -0.006317998945666141764888 0.000551361711127853430098 0.019749659340845292232469 0.020746066031299571080782 0.009833629909010556044424
292.000000 -0.016179823021972353919162 -0.006757420357840908040070 0.000491792843892772512521 0.020785719015376853679999 0.021889534973110719162648 0.010376054504634472236413
294.000000 -0.017136006363208222680328 -0.007239247916769481379362 0.000415890788104071780235 0.021891852713745874742246 0.023119855021716078508076 0.010958314560336211707092
296.000000 -0.018167063596233927469381 -0.007762675473319101925040 0.000326709342392903911035 0.023083188135753711367482 0.024447392235223758955032 0.011583421506086379396128
298.000000 -0.019268973823343638063221 -0.008315600647517034163525 0.000237564777469293647322 0.024376639280742268267588 0.025875493755395408829179 0.012252500229603198803052
300.000000 -0.020424687753842915571845 -0.008871690041868881410059 0.000173803749423095238967 0.025782537471583030774802 0.027391913384528013969410 0.012963018608427389830040
302.000000 -0.021604154496188389400491 -0.009394333938130435684988 0.000168342638852924590502 0.027293637175581610815334 0.028965478543167937075520 0.013708727672319093171538
304.000000 -0.022770424164856487014852 -0.009847176939374474927136 0.000251797311090212023402 0.028879110466034755427822 0.030553797190624253088398 0.014482283437924268337804
306.000000 -0.023889102703967900198645 -0.010205705898810842405244 0.000441844325507222243817 0.030487720418142502665226 0.032115572861743886534658 0.015277856409468456785894
308.000000 -0.024936059884309032252947 -0.010462392449840670835548 0.000738424827292843716925 0.032060224294506889375356 0.033618250643821519230148 0.016091048219202663122074
310.000000 -0.025898984049677054031235 -0.010622283878897641890005 0.001128294233879221716843 0.033544984153454110442638 0.035039735299881004382261 0.016917484863939201422678
312.000000 -0.026773046965373428762724 -0.010693800589448253929303 0.001594699911369692590241 0.034907409423386229208042 0.036367124646885039263022 0.017752358050394181215870
314.000000 -0.027555518458015904048608 -0.010681887579661104858975 0.002124677776786412699422 0.036130913410258848339485 0.037594613657786601912392 0.018590721020044977118690
316.000000 -0.028243183453345078320895 -0.010586774659390243980006 0.002710225649687339217336 0.037212760345614472046183 0.038720975582902002198882 0.019427438112820043236706
318.000000 -0.028832577277967223750021 -0.010406772867932069862040 0.003345161037489656052218 0.038158228223078322072226 0.039746790683876584426848 0.020256601281096988514951
320.000000 -0.029321168412480697051947 -0.010141564692749805917660 0.004021783059166006424334 0.038975529445036127818014 0.040672077387265997971966 0.021070597864108798341620
322.000000 -0.029707783275512336662594 -0.009793900084451094903426 0.004729510511232814899685 0.039672263256473820625114 0.041494338987161510923229 0.021858764675875733130006
324.000000 -0.029991342241430459653051 -0.009368499611951025193846 0.005456498561459653673378 0.040254303801677028540329 0.042207259098739687008806 0.022606095884564365861014
326.000000 -0.030169077920497257283561 -0.008869406971912350765019 0.006192924801383016195078 0.040726667139732074252034 0.042800310142946919322871 0.023292867909119191471845
328.000000 -0.030236466166280361045349 -0.008298964122957887615262 0.006932641492032795386968 0.041093977037804915730668 0.043259073637126790878860 0.023895653490904108368076
330.000000 -0.030188937488669027875421 -0.007659401072917088743042 0.007671880364796373509562 0.041359283810461021368976 0.043566496220161732289000 0.024389770986852632450592
332.000000 -0.030023734831144534979108 -0.006955304179031011196921 0.008406485120304261343671 0.041522121950184016914154 0.043705234820650848415191 0.024752786233459382614353
334.000000 -0.029741530067551917582147 -0.006195890226541277828742 0.009128833373082430660550 0.041576273059751728267130 0.043659881638605270437470 0.024968234724259703166682
336.000000 -0.029347546821831278773818 -0.005396166020216399718257 0.009825602762465975026362 0.041507595986489217998461 0.043417294149596621921638 0.025027943074706193032908
338.000000 -0.028850253120678358981221 -0.004575022660238579723380 0.010478593351126610014323 0.041293878380856914589447 0.042964923548654707086136 0.024931053507243314953934
340.000000 -0.028257771788478221186569 -0.003750558775533659183754 0.011068907245759179724942 0.040909130184357329895750 0.042290690214919442191377 0.024680992468511658843866
342.000000 -0.027576035509348759827697 -0.002936602310137068766460 0.011581241052304035166198 0.040331792626775900267866 0.041388209151310410838231 0.024284204736200281499192
344.000000 -0.026810203193909500768433 -0.002141555226297874817837 0.012006812579880236230290 0.039554237025007273065302 0.040264752912912468718609 0.023751325076828463944700
346.000000 -0.025965991028384625277647 -0.001367260522837691243472 0.012345696489752467500667 0.038588688665105327912919 0.038943731818212576345495 0.023097433322131103589081
348.000000 -0.025049380058132900833678 -0.000608041007102218364518 0.012607745504615987947039 0.037466345755409032058925 0.037459021953864100884513 0.022339656830142762961033
350.000000 -0.024067028364365968678973 0.000145801636725166551458 0.012808473902535106453415 0.036228348826925410586242 0.035845845511240037595257 0.021494008609237572060557
352.000000 -0.023027434549612275233033 0.000900874335772660185875 0.012961197031625987241554 0.034912275409051791996706 0.034133171298200828958080 0.020573359482569612138869
354.000000 -0.021941098354019774457901 0.001656322624128930397908 0.013071801928078465721006 0.033542918295648552207133 0.032340724595383202322196 0.019587170261611466098861
356.000000 -0.020820546484219933786042 0.002403017468997507843920 0.013137581642948046103947 0.032131039995195599667799 0.030481448604567154547773 0.018543163223737675615599
358.000000 -0.019680322643327669007718 0.003123539349519219819606 0.013147526468287309628358 0.030676277936156626235942 0.028566838609472025578562 0.017450049209258182425497
360.000000 -0.018535831704302833944364 0.003792549644504653299365 0.013083074965580263407383 0.029170329524348153488189 0.026611003136995142054344 0.016319394491995244111937
362.000000 -0.017402185956862364218933 0.004376494359357111646469 0.012918318913984686360785 0.027598773072552131024882 0.024631030771296552606131 0.015165489796587796472727
364.000000 -0.016294763406992696791464 0.004830462419476885295444 0.012618090008050020928154 0.025940881035163433632196 0.022645401564434373270496 0.014004436126019269986953
366.000000 -0.015230966739207780352716 0.005095271396116587622749 0.012136745366564637149676 0.024169978449488115079813 0.020673219344443313771897 0.012853735127623212158854
368.000000 -0.014230049160894380974596 0.005104915562543775250925 0.011425982031423398063708 0.022260003651046224304455 0.018734251889185801753790 0.011731421470081004193586
370.000000 -0.013307662947668769462539 0.004812188654601098382335 0.010457264771139384088028 0.020201567611628237775001 0.016848838735887133877256 0.010653729236706125857448
372.000000 -0.012467347938368702336964 0.004219977993296574955706 0.009247263197625496186638 0.018019317322729249547519 0.015037672817409877823458 0.009632524811102926090567
374.000000 -0.011696185136575143123649 0.003393239990678348100978 0.007865661599066759226973 0.015776608665034788647752 0.013321559550924491968638 0.008674472936123677618836
376.000000 -0.010968377506779033309092 0.002444149100698387189895 0.006420580623815990567449 0.013564375748991639586416 0.011720589970866352597101 0.007782119100883679550795
378.000000 -0.010255066865783021845537 0.001499098732355985024237 0.005029501518712726007565 0.011478896319697657821268 0.010251843685034598557815 0.006955778700138671999387
380.000000 -0.009534602790063040692048 0.000662634249520963948023 0.003788164659834520470172 0.009597161450950715891328 0.008926216273565486941655 0.006194943741299177922266
382.000000 -0.008796754723526378078047 -0.000002931330563770441060 0.002753057131942424594351 0.007962656240169037683008 0.007746641621150045751987 0.005498506238705341310491
384.000000 -0.008040416027929981127031 -0.000475852009713164053693 0.001942505994474222124832 0.006586123242167913477418 0.006708204731583937256711 0.004863958876949045322113
386.000000 -0.007270214279886756669757 -0.000763879551147168128766 0.001345997528241323548323 0.005453172282038171517216 0.005799194175777937047822 0.004286754487626490660312
388.000000 -0.006494464268943311337223 -0.000893724786179775397901 0.000933957273009738747280 0.004532763978404285958035 0.005003232765014410145243 0.003760740705860637564384
390.000000 -0.005723810415261530205877 -0.000901715290112915985633 0.000667485909551241611906 0.003786264098346309083659 0.004302583734712058134708 0.003279493621851493987546
392.000000 -0.004970270224004608855539 -0.000826100843403380739882 0.000506691480396773987448 0.003175460700445918889312 0.003681305165780162334810 0.002837640872473724991398
394.000000 -0.004246643922453271352557 -0.000702224099246209548450 0.000415698666961150957097 0.002667311480009054974055 0.003126873688386363168978 0.002431466255741246071387
396.000000 -0.003565523556407735987495 -0.000559605562296277376719 0.000365133771256600484119 0.002235770082358078895274 0.002630286811814737737980 0.002058765010399562014887
398.000000 -0.002937916077351179332949 -0.000419976609266633528483 0.000333463013193504328839 0.001862238153721027010892 0.002185584028785194678213 0.001718505686744637231400
400.000000 -0.002372206656671226043809 -0.000296555545662698072894 0.000307323402720210937192 0.001535173560704938561933 0.001789407967084927783899 0.001410690513160598900597
402.000000 -0.001873978758819754963233 -0.000195366802353723811522 0.000280178201640735643346 0.001248567034681367492882 0.001440418565672580992337 0.001136204037861792076960
404.000000 -0.001446360583566246374443 -0.000117759467143884361288 0.000249918521450652692060 0.000999650077427278278483 0.001138290307527157520229 0.000896315831845530784638
406.000000 -0.001090270250630289263286 -0.000062549976901074438884 0.000216739000095656934647 0.000787006836833587159787 0.000882715984252693190541 0.000692004702685271701548
408.000000 -0.000804099004600341117979 -0.000026949411134844772006 0.000182085330092110508123 0.000609532466883004890763 0.000672649261664901108176 0.000523356247407134270860
410.000000 -0.000583126981731390842817 -0.000006887649906202314991 0.000148198391793036944120 0.000465857871720578664652 0.000505758014192644812963 0.000389124474239227067986
412.000000 -0.000419251049892160865783 0.000002415312699835905889 0.000117501024555603913926 0.000353670775752515224345 0.000377995075708618629741 0.000286398445298643815598
414.000000 -0.000301792015996874614814 0.000005411334646159827357 0.000091716768784329153006 0.000269175319700762144190 0.000283541503087816578518 0.000210629661764258997378
416.000000 -0.000219525875925631678816 0.000005393515361001051418 0.000071402641066891511736 0.000207381877601580571005 0.000215540794934426023933 0.000156300211452471124246
418.000000 -0.000162713907493667518612 0.000004215695985550532747 0.000056062935907448511346 0.000163052446281852168311 0.000167388599347603181161 0.000118045536652020834848
420.000000 -0.000123875171992570890346 0.000002683804449588664581 0.000044697870616672629254 0.000131518113837959360179 0.000133570237180906733901 0.000091396076216940233604
422.000000 -0.000097532779897612623446 0.000001189117452954985356 0.000036376982953811626449 0.000109164983238323537386 0.000109904872176523206559 0.000072957037692515652868
424.000000 -0.000079739040890085767965 -0.000000082275766975811588 0.000030335474390332660313 0.000093295038405252712953 0.000093324155848739949307 0.000060239370506775749168
426.000000 -0.000067674329711058927314 -0.000001049774797688433909 0.000025983231986188317747 0.000081945834992173293343 0.000081606484491837359978 0.000051438964856910620097
428.000000 -0.000059358713711771089673 -0.000001712663551140356061 0.000022845962818917881220 0.000073678569484939248875 0.000073167427782385902643 0.000045273914265430769495
430.000000 -0.000053448390845892306314 -0.000002116199034414140931 0.000020563551383309059740 0.000067487611150487055735 0.000066901550350108058163 0.000040840001586554349107
432.000000 -0.000049066788820116201636 -0.000002318868417608341220 0.000018866364212131799699 0.000062672535080356283504 0.000062052180632430855483 0.000037526033084737843296
434.000000 -0.000045651403638458534046 -0.000002389682473715080903 0.000017549745913893556105 0.000058758808969903870967 0.000058124622060856805951 0.000034932119343534563400
436.000000 -0.000042857065958325200081 -0.000002366383328915526142 0.000016493802002089647229 0.000055445598546943598395 0.000054805058836269272609 0.000032804110412676980031
438.000000 -0.000040464511747585426606 -0.000002289194760781167329 0.000015606086387834598744 0.000052546466565460177441 0.000051900204818545120973 0.000030985335546974600784
440.000000 -0.000038347783256329827947 -0.000002174976802476189910 0.000014835685084755778485 0.000049936248520445702351 0.000049274895382735419617 0.000029370660045562546424
442.000000 -0.000036427873113898938287 -0.000002050877178689309204 0.000014136635953823757934 0.000047519459440117722219 0.000046852518559749676684 0.000027899928538258474088
444.000000 -0.000034648935704277872033 -0.000001905277136679622667 0.000013505986696250134725 0.000045271041153048248266 0.000044593965637152925910 0.000026540315711868574429
446.000000 -0.000032995078500932037554 -0.000001782461151309434351 0.000012897029441732043887 0.000043139810452405545919 0.000042466442993568324481 0.000025269729705381081965
448.000000 -0.000031431322769167714204 -0.000001667511487396921097 0.000012311399434126363598 0.000041101246759626050022 0.000040439027342777974898 0.000024065375147956072946
450.000000 -0.000029960105039548871262 -0.000001557898479521959101 0.000011757644882072131479 0.000039179088928761231377 0.000038524553839235729639 0.000022928874382747658621
452.000000 -0.000028557320610261752831 -0.000001466715822202370867 0.000011218112290077396484 0.000037335959245717980628 0.000036701548307567541764 0.000021846950505283328000
454.000000 -0.000027232351293074154942 -0.000001412071002396598454 0.000010671365881944470767 0.000035552505020258509910 0.000034956908446900348782 0.000020815554043060476952
456.000000 -0.000025968169648708780065 -0.000001382510033753782849 0.000010125780621959866635 0.000033830677204150537483 0.000033283671865502902337 0.000019828360476350104930
458.000000 -0.000024758071153150448335 -0.000001333577138101319860 0.000009629242437501499995 0.000032207788162547588398 0.000031701354711524604754 0.000018892401187413840731
460.000000 -0.000023602170838670828322 -0.000001302825626329052013 0.000009135712507640566331 0.000030642004084610466666 0.000030178470662886982059 0.000017994731873718358217
462.000000 -0.000022503632803610579125 -0.000001278252602792370010 0.000008666784505097687236 0.000029149163963959002425 0.000028735464753575192052 0.000017142906419320202494
464.000000 -0.000021445040335489158953 -0.000001240179441369257517 0.000008229800018786217068 0.000027733786508399641251 0.000027356219189169900371 0.000016325195336355404873
466.000000 -0.000020431917995363334088 -0.000001202319841615789552 0.000007814184621282529200 0.000026388311877388659409 0.000026037891736136580532 0.000015543060204754891382
468.000000 -0.000019463296025585588545 -0.000001136383985470893850 0.000007448422219645026539 0.000025137948763309540866 0.000024795950839622097765 0.000014801614166398461043
470.000000 -0.000018523808460290479131 -0.000001075369699941450433 0.000007094219243985699242 0.000023926923154731675016 0.000023596205749829367141 0.000014085919160971007379
472.000000 -0.000017632243862047058193 -0.000001010082727053232416 0.000006764227812825017772 0.000022782527003610015127 0.000022462098699482902051 0.000013409919256607207111
474.000000 -0.000016785574078133784671 -0.000000954140331591953821 0.000006444158323265438711 0.000021685185408648097020 0.000021388348933349359801 0.000012770096108508456723
476.000000 -0.000015974050656122562938 -0.000000915217231613100526 0.000006126163955116293924 0.000020626127935314847206 0.000020351374397305291704 0.000012154549587019967784
478.000000 -0.000015204486493547743060 -0.000000878884357169997152 0.000005822501172062205426 0.000019621427056959308622 0.000019364057443207603244 0.000011566900240010444104
480.000000 -0.000014463419868317858380 -0.000000834362564982857696 0.000005540948874203353778 0.000018666104337341010228 0.000018421184434629392054 0.000011005832986267934895
482.000000 -0.000013752760360534627769 -0.000000772614565427364991 0.000005293602833127280280 0.000017783226950162017900 0.000017527808281504952758 0.000010466798475919853186
484.000000 -0.000013089980092970944788 -0.000000740266138587239807 0.000005030733498425657065 0.000016926267879610004430 0.000016684279920261881069 0.000009960385102727084528
486.000000 -0.000012450838865119382654 -0.000000697633671572276909 0.000004792878315729060418 0.000016102221800952126079 0.000015880232941200234326 0.000009480577000761556224
488.000000 -0.000011841941326503025185 -0.000000661743900623602339 0.000004561973182654505775 0.000015315463515634584427 0.000015096348281547010390 0.000009011886462329084452
490.000000 -0.000011263494728138976258 -0.000000608831990594954141 0.000004360371875086601860 0.000014589170771077151963 0.000014368977320289191322 0.000008575436632374196276
492.000000 -0.000010724379244575995811 -0.000000586623821614563311 0.000004139448982318879673 0.000013878256851870489867 0.000013666497470894418373 0.000008154756469583207386
494.000000 -0.000010202966859223247957 -0.000000566799635414784907 0.000003925339875880354634 0.000013189848001706424067 0.000012996675909767453538 0.000007757365297737726150
496.000000 -0.000009702540087210619087 -0.000000534467636813113137 0.000003739456208494442259 0.000012550541565588064751 0.000012370399399635877174 0.000007382900018310580652
498.000000 -0.000009240831851087881495 -0.000000511926739312988767 0.000003560291785652025405 0.000011951141256806647648 0.000011783941714687880823 0.000007032050630699743059
500.000000 -0.000008798747712652367408 -0.000000514116228132564656 0.000003361327051606769815 0.000011348340363191599097 0.000011217663608115833763 0.000006695801056476728707
502.000000 -0.000008375512498505105992 -0.000000487240293829765563 0.000003200516910286249950 0.000010801797514672017040 0.000010670335536885425863 0.000006369572984958660254
504.000000 -0.000007980554422659754310 -0.000000476236724143923136 0.000003036020502233001683 0.000010281635671244134658 0.000010154478378725961506 0.000006062241723219885521
506.000000 -0.000007590164544722491898 -0.000000457005686781731321 0.000002882920496838374347 0.000009772437470447341390 0.000009657640904630213495 0.000005764874654643514037
508.000000 -0.000007229615943345171976 -0.000000437378913675495425 0.000002743664645248255676 0.000009311289893043856589 0.000009207841866913598933 0.000005494427951779084525
510.000000 -0.000006884495675473289387 -0.000000424651245190457526 0.000002604568966305984607 0.000008859887095821370349 0.000008769414717934547729 0.000005231303469212850045
512.000000 -0.000006554637566539576081 -0.000000408708396002460277 0.000002473986283040752717 0.000008428581066881776334 0.000008344349209629744413 0.000004975280749405739770
514.000000 -0.000006236765478003696104 -0.000000389690559226839877 0.000002357278008624932567 0.000008025662667489759825 0.000007936992053172075019 0.000004732297875709543841
516.000000 -0.000005933914612397671926 -0.000000348042808842085646 0.000002262863443882221261 0.000007657569146741508581 0.000007556272720417489105 0.000004507314482400318615
518.000000 -0.000005669906177921446045 -0.000000348213650614052960 0.000002143394315866637856 0.000007297010178597997686 0.000007209729268707464422 0.000004299454280463598328
518.780000 -0.000018489298397257067044 -0.000019608846291593358949 -0.000017005225299854341802 -0.000009409176982574411359 -0.000001464122583084869059 -0.000003447999363324626836
520.000000 -0.000005400041252696554263 -0.000000317571753666785299 0.000002058155313596416273 0.000006971395066852913439 0.000006889314024312476694 0.000004105148661395423888
522.000000 -0.000005143132583752085712 -0.000000317878617067148429 0.000001948915016577369775 0.000006632345043478294126 0.000006565722158947339223 0.000003913592957310395084
524.000000 -0.000004887175334191210144 -0.000000296955296941086655 0.000001854406668557397472 0.000006309873765513395934 0.000006241748903939328134 0.000003721278973151879480
526.000000 -0.000004663686341406115269 -0.000000314303586223703294 0.000001735998490221079632 0.000005989292417397168142 0.000005941246399729796216 0.000003543251505948206984
528.000000 -0.000004433474042485413041 -0.000000268634361981162237 0.000001681208744388057399 0.000005719221076503855036 0.000005667268549383618768 0.000003378888343989388819
530.000000 -0.000004218018625084202072 -0.000000243448209207869549 0.000001612184810331647021 0.000005448973224701699150 0.000005394893082344878682 0.000003215067588872267423
532.000000 -0.000004020489618964613100 -0.000000238042331991516457 0.000001533179174859969089 0.000005194788479532261991 0.000005143255680303609337 0.000003063699836647551849
534.000000 -0.000003836251451134603044 -0.000000244474343442232192 0.000001446536691621654892 0.000004938174017785160241 0.000004900543613163296567 0.000002920473831447582664
536.000000 -0.000003647896140131525815 -0.000000218542928367815326 0.000001391754443260487594 0.000004725763207146221365 0.000004670674008082141623 0.000002780285207735315761
538.000000 -0.000003478987833031868212 -0.000000197542310441411973 0.000001335587554831226179 0.000004518902325020468461 0.000004456765253387568709 0.000002648592317317037142
538.720000 -0.000003421604839869859496 -0.000000193920570683027419 0.000001313847032652983584 0.000004440955605299947200 0.000004383451218817852991 0.000002605237329948814385
