0.000000 -0.000000000000000000000000 -0.000000000000000000000000 -0.000000000000000000000000 -0.000000000000000000000000 -0.000000000000000000000000 -0.000000000000000000000000
2.000000 0.000061874149098355092549 -0.000270356838997301020776 -0.000433599741160005012174 -0.001069585045975259907439 -0.001369912996345003936005 -0.000357152628406420932696
4.000000 0.000602514104868956791930 -0.000033667271727989557225 -0.000655331616297835889244 -0.002156699925166594145054 -0.001943080471076352646470 -0.000388182398648613785196
6.000000 0.001523539913119870484182 0.000599575483176693403188 -0.000235826624291481996192 -0.002502779811644950148930 -0.002415206817798124395297 -0.000519419351475489902287
8.000000 0.002984984399088190434174 0.001537446556008922318379 0.000472195151498937758759 -0.002975279368889048158681 -0.003347275468546156117211 -0.000787650041632736953520
10.000000 0.005258359069540340276216 0.003169912071364157195308 0.001601916068904551872926 -0.003866891092682958434856 -0.004953882640270400664062 -0.001168073443899836534599
12.000000 0.007598901759671256375683 0.004690200032684308656394 0.002397423319400943716312 -0.005526118151568558921338 -0.006901837059803777457700 -0.001598449787235275282304
14.000000 0.010613419670662007504580 0.006468949583358587010484 0.003069042624107855797566 -0.008282186064954641033231 -0.009864153988177191620390 -0.002376982273442228201649
16.000000 0.014268066445938748856848 0.008790337989593119752407 0.004072646719735399829798 -0.011585868552983314555549 -0.013556460248075538621571 -0.003416380867147513628046
18.000000 0.018391409284713524513455 0.011297717110274088994637 0.005015170653566084282837 -0.015285875868070394195675 -0.017554432588661329772695 -0.004638509405943944986783
20.000000 0.022567672112309068721547 0.013211436309026731300564 0.005405651080269355431007 -0.019501657009735138409434 -0.021520371458017988064437 -0.005837710030460932682239
22.000000 0.026444238898370935053617 0.014967061328812789749998 0.005524006624920966244952 -0.023564738375087386501594 -0.024918113252916877092824 -0.007045781667699571940156
24.000000 0.029998498937051663870701 0.015834542609948092095618 0.004927105437737609380799 -0.027691210077662342659011 -0.028334087987012316484092 -0.008363585081428617090671
26.000000 0.033534697354416984071968 0.016384849937701957689473 0.004135260925200624423925 -0.031119159100560938452373 -0.031299246120866118514581 -0.009756384254237531958309
28.000000 0.037246833205437437919194 0.017436672573115739176552 0.004347559274905632084596 -0.033230041975200616533037 -0.033635440741953827326061 -0.011016321286518708857938
30.000000 0.040702787997966671795780 0.017661460798497650298566 0.003357017436788789065821 -0.036245129543281448536440 -0.036263609030071919381299 -0.012564706540130055403837
32.000000 0.044371290231919970070695 0.018552747554098511506560 0.003149179048205741696109 -0.038762074511030843171344 -0.038456948777959354401901 -0.013924316832570586208173
34.000000 0.047800710972152729572038 0.018452408730843205403316 0.002025582818751317775580 -0.041403722242270700470979 -0.040939274460606522865191 -0.015554706477050601887147
36.000000 0.051306713545986100399876 0.018510024171216145350005 0.000794383920665479685563 -0.044241786430567392462976 -0.043483118966712371034067 -0.017250526234545815462695
38.000000 0.054787349208607283301831 0.018561419287944910111454 -0.000362049630447109965694 -0.046658055523432072353440 -0.045839810138260599081672 -0.018919392734540269040977
40.000000 0.057868412529925153386934 0.018610241305219130808490 -0.001652686242823200131122 -0.048983075090613600877099 -0.048360382061250484220238 -0.020942934677556524630804
42.000000 0.061140714239308238675541 0.019045879718082261988776 -0.002456833563767633985681 -0.050766706700251428008297 -0.051069986332314527832654 -0.023284529468242540217737
44.000000 0.063562492306759005300520 0.019150869125941508142041 -0.003639257865400027588954 -0.052810981620835445449202 -0.053458405277977183445159 -0.025463245628652618479659
46.000000 0.065393099444447974621930 0.018751292985837539339933 -0.005256643714713415266315 -0.055010107445381727087064 -0.056232626338652419439867 -0.027861056302758788888463
48.000000 0.067412661150251837471892 0.018934843686214192920447 -0.006343205662439533980279 -0.057144382766778675786234 -0.059102484691950465944821 -0.030318072891277504654628
50.000000 0.069418176957194918652583 0.018907197136731668241083 -0.007901985754903055256260 -0.059385703800743996905176 -0.061873487278588754079145 -0.032697307083031999785927
52.000000 0.070675356926773166832412 0.019126575225603872215663 -0.008593832509784925244301 -0.060720729362231280756834 -0.064016017822705426065788 -0.034724121469564307729261
54.000000 0.071319865592015418975791 0.018728193100832450646021 -0.010626013768083799812536 -0.063194685436284078750013 -0.066484210407115995611349 -0.036657232533077024894119
56.000000 0.072022200599974911527923 0.018728343639849293067456 -0.011748364460434495074037 -0.064777544205185125236746 -0.068112568664608783008951 -0.037897389148065264985465
58.000000 0.073257087748934260340583 0.018501287394553537352104 -0.014112166624873752340807 -0.067750539759668035322271 -0.070189737509444349861099 -0.039035127082282440602601
60.000000 0.075135689977326419741743 0.018716234583140745756369 -0.015310836950137247935988 -0.069321397775459966950073 -0.071488922545584143719566 -0.039826148829720069144411
62.000000 0.076125837094600995458293 0.017920100617137613152607 -0.017701390651797994923999 -0.071193271368636110163486 -0.072357287892497609838038 -0.040427483647404782729495
64.000000 0.077026176024890369298248 0.017749739279855715479162 -0.018327727972706615161558 -0.070587045524726749201605 -0.071554306064995840119813 -0.040389437163894356674909
66.000000 0.076602063723802099604043 0.016337824994792665700416 -0.020290008021156515777284 -0.070516922845599239177972 -0.070085296906534713667902 -0.039894125031746323351012
68.000000 0.075919283682685356762221 0.015475402811495017965648 -0.020785253165200984898364 -0.068720939445835182990407 -0.068039313430626552348102 -0.039218253407345346484014
70.000000 0.075644674143903370411302 0.014633677180633124226272 -0.021424420986079814599456 -0.066691703825884504630572 -0.065715496233585884988671 -0.038414382355695261828110
72.000000 0.075133543645082290218795 0.013910780948541732332524 -0.021631890326067396146392 -0.064185191135840660714429 -0.063380092642463720098434 -0.037556626182325726637234
74.000000 0.072826531926266396821390 0.012246794650289959116574 -0.022904164550748000450664 -0.062683993840048191081848 -0.061106886671891832985004 -0.036542074093020668335008
76.000000 0.071220875841401673489450 0.010902173822470441824639 -0.024419445203484407835859 -0.061784502524366943787548 -0.059131225968919003121993 -0.035617097222096057163032
78.000000 0.068663487156762445517977 0.009515541899826304370058 -0.025395637883895608166718 -0.060127917819969331492125 -0.056737852114839282258174 -0.034418416245457800206609
80.000000 0.065918861794779820550971 0.007742112850075526242488 -0.026830551304847703730783 -0.058820785373638800885843 -0.054526977304526574874544 -0.033263063322640576413569
82.000000 0.062969125994944571966805 0.006119928597052300134340 -0.028078371537077057712439 -0.057420461960005268753360 -0.051624666703558738656277 -0.031621515502779147521739
84.000000 0.059856317486401459937451 0.004418798636867083198809 -0.029410933185786747312562 -0.056075062651684402792451 -0.048550436232085415755311 -0.029819077695407265882199
86.000000 0.055600318741380473641644 0.002401613610224357080875 -0.030624044455520919166824 -0.054106757564378021863050 -0.044280156340625494160168 -0.027049124129563655721809
88.000000 0.051396695630395637655052 0.000828449083533743056013 -0.031323260249882335648497 -0.051831444177646415760741 -0.040226362976144326710770 -0.024518349893303176267878
90.000000 0.046785456744381510862940 -0.000923898505839414554454 -0.032358485755352855983702 -0.049882739384700038043352 -0.036414035969991882801811 -0.022193890836987827108739
92.000000 0.043685356795238675098325 -0.000503691997256998022503 -0.029933744846297530295409 -0.045389365498574432700174 -0.032575509119693098203374 -0.020147425410017641422833
94.000000 0.041749402165156442034988 0.001215764415368333949477 -0.025732341483221676803339 -0.039882727307570926822411 -0.029025796808562653872343 -0.018397910596809660677131
96.000000 0.040633257914813647460051 0.003678602922268590924570 -0.020686642242097454807981 -0.034023133901534115264287 -0.025613896394135322182040 -0.016764797821090780122200
98.000000 0.040438188862380965160614 0.007342844020883771555264 -0.013217700986373547705766 -0.025721119230865754218263 -0.021940323920086268749685 -0.015232141071012601438173
100.000000 0.038955421161383049777349 0.010542494037059360265096 -0.006152715460085257659362 -0.017863422987089191962262 -0.018258426147387315369164 -0.013509861115545727244802
102.000000 0.035766673340348477394546 0.011447217447401104861715 -0.002643643740778818269216 -0.013299948312189132856864 -0.015468924785728683721220 -0.011981362614444976411043
104.000000 0.032612283858067289687988 0.011461927608663166969216 -0.000778086034059690062961 -0.010331836892797097160468 -0.013179398547241387776308 -0.010603292306398264671641
106.000000 0.029834227381983300514401 0.010942720612694925574893 0.000296990297713299394259 -0.008105270107670892523744 -0.011324916632383592515754 -0.009444192679247885927052
108.000000 0.027575776994538475639374 0.010240594496086698195203 0.000776656861692617784751 -0.006598597303050217181830 -0.009895633223782370271882 -0.008518343259694026101125
110.000000 0.025216278912734629152892 0.009330926631104820984097 0.000737631327084291277783 -0.005741337399574936509183 -0.008730846699799052479385 -0.007648445805135235635308
112.000000 0.022584680679474354592084 0.008209677411610468225622 0.000533669931771374971008 -0.004994571136754183231232 -0.007621105981863053949188 -0.006810175761800916528765
114.000000 0.019436649173036391058389 0.006723949875740552889480 0.000068506556565770004331 -0.004351575726808847369154 -0.006473889078816423905960 -0.005925015412496990180324
116.000000 0.016728284736843696683950 0.005628838229376305866969 -0.000044369691702361710515 -0.003549020923084034509487 -0.005381951608924894284169 -0.005097604332396261060667
118.000000 0.013985457319533513981247 0.004504485896690408469611 -0.000195091482578936439678 -0.002776721904789017369986 -0.004275657421348891956692 -0.004240623717508865478387
120.000000 0.011350666961454465228587 0.003589679140108893370953 -0.000124105995694262315589 -0.001874286006033207101218 -0.003156831487716376533070 -0.003376690440746613584844
122.000000 0.009006884386597194952495 0.002863797523715060425187 0.000033659310351087396579 -0.001006200817352091020362 -0.002118390460263759340204 -0.002563058203473644186543
124.000000 0.006771244093111769210558 0.002267627731793923993170 0.000277109634061829888507 -0.000122096721467606771517 -0.001104053238416477988534 -0.001763476379827057542379
126.000000 0.004703467782299368751819 0.001658665174120980793926 0.000355757561694059159900 0.000511290669774404631272 -0.000260821086545637954249 -0.001072733345728598504040
128.000000 0.002949722679592829167883 0.001141605879249421280977 0.000463596673687118390750 0.001098865285758366490063 0.000460517001541437464782 -0.000495099382378781996406
130.000000 0.001321256730213865105208 0.000606434431868597945657 0.000469491860956031939380 0.001541614240557882169538 0.001075710479274836735633 0.000012430883746748728818
132.000000 0.000010492674350862087957 0.000212559560460926199590 0.000517229058003168583671 0.001930803055119850123594 0.001588925957486803097751 0.000433401233624276370927
134.000000 -0.001036779000901618666072 -0.000107770889294141845459 0.000567806631503365785707 0.002266785189366354088397 0.002008792689431906225428 0.000772428614028195935533
136.000000 -0.001932249029222367180114 -0.000396980894611392355099 0.000577885967721398661687 0.002512579424256886160421 0.002342357085160175125121 0.001044665173074917205107
138.000000 -0.002491136563298938441657 -0.000551643931377429272422 0.000630489967410342942028 0.002723028940372712591866 0.002584500355605060147035 0.001234103601714534384493
140.000000 -0.003028802901493888363044 -0.000756849894832020307286 0.000596417502949027713600 0.002833920295226719562182 0.002755984105557223937111 0.001370017143536082174921
142.000000 -0.003155113812695115385609 -0.000789253661013446196001 0.000622516721444779392441 0.002913296019412714172453 0.002831614332601052694965 0.001418070202193885990735
144.000000 -0.003263354414813100096149 -0.000819333592442233289363 0.000641183957378101956545 0.002980298593409801480303 0.002897736671641211979311 0.001459897146608098855713
146.000000 -0.003374671195272604604098 -0.000851653127653756122396 0.000655768403604430950328 0.003042441135085073664751 0.002961923200852398067873 0.001501267561818752900929
148.000000 -0.003483235792964940995969 -0.000884017160927086289440 0.000667570668601231488083 0.003100216988278048629163 0.003023132584000670294855 0.001540870639266668420259
150.000000 -0.003586630907553991966935 -0.000915419769570114446461 0.000677286774939447281524 0.003154054168278811343812 0.003081076355312437758949 0.001578201706371110688357
152.000000 -0.003683673669816919099551 -0.000945291656431611012658 0.000685437155109907018599 0.003204429318396527850976 0.003135777357959081395461 0.001613078354409869285060
154.000000 -0.003773936698296129124003 -0.000973354302016518299102 0.000692417931390430026369 0.003251841738109435657467 0.003187443695915222890980 0.001645514262350178955399
156.000000 -0.003857526945098178113719 -0.000999534663872579578342 0.000698535932046156528286 0.003296799597457098982001 0.003236409795840467298889 0.001675660866825841831262
158.000000 -0.003934929871005196123923 -0.001023914114113672838707 0.000704022012858390678833 0.003339804336253672512047 0.003283087380990190422281 0.001703759208763776233919
160.000000 -0.004006863009292597338495 -0.001046670936513187074104 0.000709051803868832649508 0.003381337939915148634723 0.003327927034460687830825 0.001730102085724258059382
162.000000 -0.004074161173472264953210 -0.001068035319398281859232 0.000713759954952089418004 0.003421851525347587106435 0.003371387078699369932444 0.001755003469872421124898
164.000000 -0.004137700041066513269306 -0.001088266433493010210826 0.000718245075521553371853 0.003461758360712940095494 0.003413911211743450406508 0.001778775784466619935831
166.000000 -0.004198333688975401309373 -0.001107623142542732462903 0.000722584574232172302533 0.003501434785982782214170 0.003455916722019308339603 0.001801716374127877197397
168.000000 -0.004256864252837717736699 -0.001126353675397536802452 0.000726837530606670506259 0.003541218569764778383024 0.003497786773604096271367 0.001824099563556471053499
170.000000 -0.004314020025627734317153 -0.001144686859704255712036 0.000731050836093770405391 0.003581412376569779662527 0.003539868274260420197980 0.001846172424392183378933
172.000000 -0.004370455609144985840986 -0.001162830992264635588535 0.000735259811200285806274 0.003622284294833849095652 0.003582472805944381284704 0.001868154768918535088562
174.000000 -0.004426747978150714912804 -0.001180972503518423538313 0.000739491268616635335012 0.003664074617802726748644 0.003625879777968389616749 0.001890240629271710106132
176.000000 -0.004483402507544849945054 -0.001199272923728545835881 0.000743772035738726831205 0.003707005075698393929684 0.003670342347187259893215 0.001912601353840556132196
178.000000 -0.004540870304493176135008 -0.001217884185280654991620 0.000748113286103105627929 0.003751269124915413300664 0.003716088092947939913041 0.001935387410745332712955
180.000000 -0.004599543885884301019917 -0.001236934946256414450880 0.000752531297229843245192 0.003797052140394197982526 0.003763327061707811508479 0.001958732836559410207117
182.000000 -0.004659775621157781141934 -0.001256542983082730054190 0.000757038824534452784061 0.003844528630169344058515 0.003812256524362994409422 0.001982758820969134951062
184.000000 -0.004721883034318821725783 -0.001276817790988652150802 0.000761642570054051363734 0.003893862326804800339658 0.003863060353690691076101 0.002007574470821647111274
186.000000 -0.004786158225781706257451 -0.001297860198923507296306 0.000766348832365156213201 0.003945213912457660142274 0.003915918127524887354385 0.002033282003927282949318
188.000000 -0.004852873611349538436610 -0.001319766260737745625087 0.000771162239249301943028 0.003998742655122805404744 0.003971005912863140654978 0.002059977848569898104675
190.000000 -0.004922289699294547446473 -0.001342628239069992976060 0.000776086969924116875687 0.004054608753135126655853 0.004028497881551048979965 0.002087754304626815351348
192.000000 -0.004994657009264041359897 -0.001366535635011532391625 0.000781128189574595353621 0.004112977812832650445496 0.004088572469301985680412 0.002116702571670141166255
194.000000 -0.005070228257509006714043 -0.001391582892056770180689 0.000786283132079910302391 0.004174014898012210796063 0.004151410821846804495572 0.002146913194774626842259
196.000000 -0.005149253903048690850230 -0.001417861615545643830943 0.000791554304830868532203 0.004237897153637355460165 0.004217202081550865643000 0.002178478455402370513039
198.000000 -0.005231991856991810053990 -0.001445469763217854591505 0.000796939349461491843007 0.004304806678642086534281 0.004286142339961579450502 0.002211492143380691666188
200.000000 -0.005318709200999474466520 -0.001474507192799568962641 0.000802437642908393001032 0.004374937782173173202172 0.004358439846642561156520 0.002246052783607239543978
202.000000 -0.005409681722085807331624 -0.001505079038561890755407 0.000808046543168627461745 0.004448494849245915663816 0.004434313433561500560065 0.002282262483193716988417
204.000000 -0.005505201805319616045753 -0.001537298372170612346943 0.000813761127729237970264 0.004525695301374037422815 0.004513995853331567546796 0.002320228813909833761459
206.000000 -0.005605578271934399427201 -0.001571283521512696883943 0.000819578563855038132700 0.004606772993607444882658 0.004597735621663390399860 0.002360065932925315291407
208.000000 -0.005711139393245097568841 -0.001607162926514666724531 0.000825490607644572584045 0.004691973784416246691376 0.004685797288824735187807 0.002401894944541461442145
210.000000 -0.005822234362539578135520 -0.001645073149614356862458 0.000831491192082053237090 0.004781564571246691743023 0.004778465046759911884211 0.002445845259001004981525
212.000000 -0.005939236958633336421753 -0.001685160671385471957071 0.000837570628008127318447 0.004875828155036148435497 0.004876042414124642267181 0.002492054813072314828348
214.000000 -0.006062547510527902666633 -0.001727582863842346905595 0.000843719660733853742303 0.004975069247315617136651 0.004978854164262126041907 0.002540670892952466824316
216.000000 -0.006192593938262930600147 -0.001772508245267414780932 0.000849927337314013197148 0.005079613764357298992536 0.005087249340448984392948 0.002591851893506026162373
218.000000 -0.006329834583144003899713 -0.001820117340349606573080 0.000856181953665712176284 0.005189811132132002291506 0.005201601649800500007381 0.002645767281727385601686
220.000000 -0.006474762880784035341819 -0.001870606599576220404821 0.000862467743845313477430 0.005306034632688130456279 0.005322311640826696971240 0.002702598868727817179453
222.000000 -0.006627905385527252390965 -0.001924183557147588147576 0.000868770670494466851208 0.005428685191916245850186 0.005449808138778830871041 0.002762541498267804054856
224.000000 -0.006789826282478867228165 -0.001981071086821800230487 0.000875075458783985634693 0.005558191813439403161645 0.005584549217858612510379 0.002825803591811566328057
226.000000 -0.006961131377334914792365 -0.002041509307757006889961 0.000881363375920249489566 0.005695011414420408403514 0.005727025430329363460402 0.002892609423437620015662
228.000000 -0.007142465314300959142169 -0.002105751738083796661960 0.000887617767693869136846 0.005839632519858035074323 0.005877759087327003896528 0.002963198439477282477433
230.000000 -0.007334516345094730695175 -0.002174068460849891588904 0.000893821131249927423000 0.005992575303789240276364 0.006037306579648603517552 0.003037826648246382335583
232.000000 -0.007538020120924251825378 -0.002246749832308233326555 0.000899951516720543919642 0.006154389850503659380176 0.006206259856053042249513 0.003116768217474373374454
234.000000 -0.007753762099237121972750 -0.002324103603638252336927 0.000905988049473621854558 0.006325662068076554067630 0.006385248160047834846409 0.003200315941248345341652
236.000000 -0.007982580498067203336743 -0.002406461364003893363406 0.000911903516670154400646 0.006507009744823534676261 0.006574939825791111837339 0.003288782304988223121472
238.000000 -0.008225372561819051242527 -0.002494179580188226903054 0.000917665825350691562699 0.006699087782348422427658 0.006776048038853494867584 0.003382501985130617703362
240.000000 -0.008483105416270845383631 -0.002587648767945579207639 0.000923230277564934505644 0.006902588719683784221348 0.006989335099906926647428 0.003481833390227382241805
242.000000 -0.008756828434616377096478 -0.002687302629879829204279 0.000928534654328570883269 0.007118248582808374240460 0.007215621190017183599064 0.003587161191047995734832
244.000000 -0.009047686212288214013810 -0.002793627521771848299520 0.000933493416189544716194 0.007346856869584008666030 0.007455798626048827822121 0.003698900588733103692030
246.000000 -0.009356950931881154870373 -0.002907185576646585580679 0.000937980945697170897385 0.007589264162959893054994 0.007710848494966426533437 0.003817502650826766572717
248.000000 -0.009686039464041701352315 -0.003028626329965339314398 0.000941829247480381170216 0.007846407487168359159990 0.007981865747574617975246 0.003943460603231889113895
250.000000 -0.010036553371304181986323 -0.003158713227699031129980 0.000944812728092885413880 0.008119331786489341132307 0.008270085563127679839646 0.004077317144186096663228
252.000000 -0.010410309641913157580051 -0.003298339912388054823156 0.000946646080977499543123 0.008409226109878360430616 0.008576915950310725136885 0.004219673656923174018263
254.000000 -0.010809374209408997152826 -0.003448547276136549114001 0.000946978333256652538008 0.008717455031837011147910 0.008903967932235398730079 0.004371199544053186274162
256.000000 -0.011236085317848183359746 -0.003610526347599295020341 0.000945405855221783221823 0.009045599872522139262010 0.009253079799040058936455 0.004532640163796408834529
258.000000 -0.011693062308872344962074 -0.003785608436471072160701 0.000941490421130004688510 0.009395488605537748866281 0.009626330620896222239891 0.004704824076416180486659
260.000000 -0.012183187544454524703363 -0.003975228607554626321374 0.000934799891102701006537 0.009769218483803345995375 0.010026032067167713057732 0.004888665550099982430587
262.000000 -0.012709562053036844650467 -0.004180867911193518644819 0.000924959174614372161075 0.010169151773473692618177 0.010454691248577254597540 0.005085162054290057534467
264.000000 -0.013275428687808730685016 -0.004403972644025299157389 0.000911709036386168405856 0.010597873443002095786292 0.010914939085664003906584 0.005295384970987436490386
266.000000 -0.013884060960210270821436 -0.004645849798555831342006 0.000894976173911834495776 0.011058113250694530729779 0.011409427308780917265096 0.005520464512066049385386
268.000000 -0.014538643617480626057947 -0.004907570393353521617796 0.000874919914389585902555 0.011552618466801660435106 0.011940701954965186534774 0.005761569610215656021823
270.000000 -0.015242156270498682241188 -0.005189887096898431785574 0.000851958348443073972336 0.012083996757183548126369 0.012511076182404918741287 0.006019888418286186218542
272.000000 -0.015997298066442310060520 -0.005493210449236387779570 0.000826737181304610453843 0.012654545742278621930921 0.013122533940958318668391 0.006296612931992425117589
274.000000 -0.016806475006991606485629 -0.005817653349950453051109 0.000800051791158407966421 0.013266119362111861157416 0.013776700707123314126878 0.006592935686422070513946
276.000000 -0.017671874685736360666155 -0.006163159365644764985104 0.000772715089480232784035 0.013920059878211462137121 0.014474898991115502100424 0.006910060251258965009769
278.000000 -0.018595621873238366711378 -0.006529706598609338018269 0.000745388589496846776239 0.014617226050456054789461 0.015218295240858747616186 0.007249225649451675364265
280.000000 -0.019580027308820503739728 -0.006917579307990430123598 0.000718391540358386806661 0.015358130317441971365855 0.016008136297718859181183 0.007611747098873140882080
282.000000 -0.020627904255985003018070 -0.007327681718848498039487 0.000691502325718007342104 0.016143175940127096890109 0.016846054664093831204630 0.007999068077335649840087
284.000000 -0.021742956957635759668301 -0.007761882776437138004022 0.000663761364852398093490 0.016972983232095954081453 0.017734430221110028536025 0.008412825844633764482694
286.000000 -0.022930232747349635347156 -0.008223377380571935540976 0.000633281327183189582213 0.017848791899482061018567 0.018676797798061597899455 0.008854927171235801863780
288.000000 -0.024196588321231136953227 -0.008717006871724820166181 0.000597120108724594027272 0.018772967234229803734635 0.019678290893462142135961 0.009327632556415256515070
290.000000 -0.025551029196208420446457 -0.009249388681197696221448 0.000551361711127853430098 0.019749659340845292232469 0.020746066031299571080782 0.009833629909010556044424
292.000000 -0.027004486656209168021769 -0.009828443839371486454026 0.000491792843892772512521 0.020785719015376853679999 0.021889534973110719162648 0.010376054504634472236413
294.000000 -0.028568149264738811748954 -0.010461504572193965761917 0.000415890788104071780235 0.021891852713745874742246 0.023119855021716078508076 0.010958314560336211707092
296.000000 -0.030249215060286348266683 -0.011151074377954395613899 0.000326709342392903911035 0.023083188135753711367482 0.024447392235223758955032 0.011583421506086379396128
298.000000 -0.032044186342329361583126 -0.011888659970378918917522 0.000237564777469293647322 0.024376639280742268267588 0.025875493755395408829179 0.012252500229603198803052
300.000000 -0.033933004934933466700819 -0.012650017563105497506171 0.000173803749423095238967 0.025782537471583030774802 0.027391913384528013969410 0.012963018608427389830040
302.000000 -0.035879144059647961884085 -0.013396377969887565337337 0.000168342638852924590502 0.027293637175581610815334 0.028965478543167937075520 0.013708727672319093171538
304.000000 -0.037837375038407235205984 -0.014083119425840777416692 0.000251797311090212023402 0.028879110466034755427822 0.030553797190624253088398 0.014482283437924268337804
306.000000 -0.039764886604142839210407 -0.014672374939183448205871 0.000441844325507222243817 0.030487720418142502665226 0.032115572861743886534658 0.015277856409468456785894
308.000000 -0.041629296555606640217739 -0.015142649704942714658507 0.000738424827292843716925 0.032060224294506889375356 0.033618250643821519230148 0.016091048219202663122074
310.000000 -0.043409709182078703992858 -0.015489488454097855713032 0.001128294233879221716843 0.033544984153454110442638 0.035039735299881004382261 0.016917484863939201422678
312.000000 -0.045092022352886597380550 -0.015718484551902285606406 0.001594699911369692590241 0.034907409423386229208042 0.036367124646885039263022 0.017752358050394181215870
314.000000 -0.046663076355897968594544 -0.015838136063329261160604 0.002124677776786412699422 0.036130913410258848339485 0.037594613657786601912392 0.018590721020044977118690
316.000000 -0.048107368258282261208603 -0.015857565443767485113824 0.002710225649687339217336 0.037212760345614472046183 0.038720975582902002198882 0.019427438112820043236706
318.000000 -0.049407283507882072959294 -0.015787627273061401872445 0.003345161037489656052218 0.038158228223078322072226 0.039746790683876584426848 0.020256601281096988514951
320.000000 -0.050545740650634891910631 -0.015641479943814644293365 0.004021783059166006424334 0.038975529445036127818014 0.040672077387265997971966 0.021070597864108798341620
322.000000 -0.051508704848268589693294 -0.015433268933900947880722 0.004729510511232814899685 0.039672263256473820625114 0.041494338987161510923229 0.021858764675875733130006
324.000000 -0.052285313721335921477440 -0.015175142114548761940185 0.005456498561459653673378 0.040254303801677028540329 0.042207259098739687008806 0.022606095884564365861014
326.000000 -0.052866681102362304833786 -0.014874332907898789660206 0.006192924801383016195078 0.040726667139732074252034 0.042800310142946919322871 0.023292867909119191471845
328.000000 -0.053246173465914939382237 -0.014532913885935298814456 0.006932641492032795386968 0.041093977037804915730668 0.043259073637126790878860 0.023895653490904108368076
330.000000 -0.053421254225994425912649 -0.014150286218340754965106 0.007671880364796373509562 0.041359283810461021368976 0.043566496220161732289000 0.024389770986852632450592
332.000000 -0.053394709890160221843480 -0.013726159728359615605497 0.008406485120304261343671 0.041522121950184016914154 0.043705234820650848415191 0.024752786233459382614353
334.000000 -0.053174792351426074243914 -0.013262988412848666572308 0.009128833373082430660550 0.041576273059751728267130 0.043659881638605270437470 0.024968234724259703166682
336.000000 -0.052774338130920195322204 -0.012767113622168998685047 0.009825602762465975026362 0.041507595986489217998461 0.043417294149596621921638 0.025027943074706193032908
338.000000 -0.052206807741104657716313 -0.012246756762057574297042 0.010478593351126610014323 0.041293878380856914589447 0.042964923548654707086136 0.024931053507243314953934
340.000000 -0.051479794191177846718332 -0.011707806754558534867439 0.011068907245759179724942 0.040909130184357329895750 0.042290690214919442191377 0.024680992468511658843866
342.000000 -0.050592604735093901768828 -0.011152057985420901070617 0.011581241052304035166198 0.040331792626775900267866 0.041388209151310410838231 0.024284204736200281499192
344.000000 -0.049540795742914568722259 -0.010578976993576202567104 0.012006812579880236230290 0.039554237025007273065302 0.040264752912912468718609 0.023751325076828463944700
346.000000 -0.048321526902144591730792 -0.009987217414740078708091 0.012345696489752467500667 0.038588688665105327912919 0.038943731818212576345495 0.023097433322131103589081
348.000000 -0.046935405093290007150220 -0.009374556425637177448085 0.012607745504615987947039 0.037466345755409032058925 0.037459021953864100884513 0.022339656830142762961033
350.000000 -0.045387480758598629237976 -0.008739433714733941746533 0.012808473902535106453415 0.036228348826925410586242 0.035845845511240037595257 0.021494008609237572060557
352.000000 -0.043688267650130632735461 -0.008083722544266730425377 0.012961197031625987241554 0.034912275409051791996706 0.034133171298200828958080 0.020573359482569612138869
354.000000 -0.041853352429025852954325 -0.007413451862353026382280 0.013071801928078465721006 0.033542918295648552207133 0.032340724595383202322196 0.019587170261611466098861
356.000000 -0.039903261876200211977217 -0.006738667181324662150410 0.013137581642948046103947 0.032131039995195599667799 0.030481448604567154547773 0.018543163223737675615599
358.000000 -0.037863040891594375303431 -0.006073554881761407051033 0.013147526468287309628358 0.030676277936156626235942 0.028566838609472025578562 0.017450049209258182425497
360.000000 -0.035759720033191340349266 -0.005435629028600679965577 0.013083074965580263407383 0.029170329524348153488189 0.026611003136995142054344 0.016319394491995244111937
362.000000 -0.033620482662933139084149 -0.004845227355563066530542 0.012918318913984686360785 0.027598773072552131024882 0.024631030771296552606131 0.015165489796587796472727
364.000000 -0.031474808341458090921172 -0.004327375541842872277987 0.012618090008050020928154 0.025940881035163433632196 0.022645401564434373270496 0.014004436126019269986953
366.000000 -0.029359194229392635011600 -0.003914176620281105238586 0.012136745366564637149676 0.024169978449488115079813 0.020673219344443313771897 0.012853735127623212158854
368.000000 -0.027317947418497037781471 -0.003641476136326210564370 0.011425982031423398063708 0.022260003651046224304455 0.018734251889185801753790 0.011731421470081004193586
370.000000 -0.025392876106266185076699 -0.003534557162999853435065 0.010457264771139384088028 0.020201567611628237775001 0.016848838735887133877256 0.010653729236706125857448
372.000000 -0.023605253838968581758806 -0.003589628205598723465625 0.009247263197625496186638 0.018019317322729249547519 0.015037672817409877823458 0.009632524811102926090567
374.000000 -0.021944837765022134207227 -0.003766205905957134732198 0.007865661599066759226973 0.015776608665034788647752 0.013321559550924491968638 0.008674472936123677618836
376.000000 -0.020375350661499758153639 -0.003995978678876857363711 0.006420580623815990567449 0.013564375748991639586416 0.011720589970866352597101 0.007782119100883679550795
378.000000 -0.018853816548502152355971 -0.004203510332957633398310 0.005029501518712726007565 0.011478896319697657821268 0.010251843685034598557815 0.006955778700138671999387
380.000000 -0.017350822836415223660023 -0.004328595384189424383203 0.003788164659834520470172 0.009597161450950715891328 0.008926216273565486941655 0.006194943741299177922266
382.000000 -0.015857039085460693933483 -0.004337936225038871787540 0.002753057131942424594351 0.007962656240169037683008 0.007746641621150045751987 0.005498506238705341310491
384.000000 -0.014375451231255274506249 -0.004223203485342723502438 0.001942505994474222124832 0.006586123242167913477418 0.006708204731583937256711 0.004863958876949045322113
386.000000 -0.012913004364295084178127 -0.003994141992709500203762 0.001345997528241323548323 0.005453172282038171517216 0.005799194175777937047822 0.004286754487626490660312
388.000000 -0.011478002533911900104324 -0.003672236106686822734030 0.000933957273009738747280 0.004532763978404285958035 0.005003232765014410145243 0.003760740705860637564384
390.000000 -0.010080783603644866142091 -0.003284917240316701479708 0.000667485909551241611906 0.003786264098346309083659 0.004302583734712058134708 0.003279493621851493987546
392.000000 -0.008734685153409534053015 -0.002860776871949718361959 0.000506691480396773987448 0.003175460700445918889312 0.003681305165780162334810 0.002837640872473724991398
394.000000 -0.007455879856299743244086 -0.002426719334870710512858 0.000415698666961150957097 0.002667311480009054974055 0.003126873688386363168978 0.002431466255741246071387
396.000000 -0.006261215499190007569008 -0.002006038906807396018234 0.000365133771256600484119 0.002235770082358078895274 0.002630286811814737737980 0.002058765010399562014887
398.000000 -0.005165317153026868952914 -0.001616719136490662924593 0.000333463013193504328839 0.001862238153721027010892 0.002185584028785194678213 0.001718505686744637231400
400.000000 -0.004178986961376080291886 -0.001270364197139143939974 0.000307323402720210937192 0.001535173560704938561933 0.001789407967084927783899 0.001410690513160598900597
402.000000 -0.003309526915990133270201 -0.000972707701459274518691 0.000280178201640735643346 0.001248567034681367492882 0.001440418565672580992337 0.001136204037861792076960
404.000000 -0.002561548727398058316468 -0.000725226519272462850051 0.000249918521450652692060 0.000999650077427278278483 0.001138290307527157520229 0.000896315831845530784638
406.000000 -0.001936833973476244927583 -0.000526713303143091626096 0.000216739000095656934647 0.000787006836833587159787 0.000882715984252693190541 0.000692004702685271701548
408.000000 -0.001433084060885668085603 -0.000373849942077237608860 0.000182085330092110508123 0.000609532466883004890763 0.000672649261664901108176 0.000523356247407134270860
410.000000 -0.001042603529590559793133 -0.000261261336856208282921 0.000148198391793036944120 0.000465857871720578664652 0.000505758014192644812963 0.000389124474239227067986
412.000000 -0.000751819422032168902317 -0.000181758057029871944541 0.000117501024555603913926 0.000353670775752515224345 0.000377995075708618629741 0.000286398445298643815598
414.000000 -0.000542603720222485934495 -0.000127365094731728860974 0.000091716768784329153006 0.000269175319700762144190 0.000283541503087816578518 0.000210629661764258997378
416.000000 -0.000395614745723940847231 -0.000090765333974553418775 0.000071402641066891511736 0.000207381877601580571005 0.000215540794934426023933 0.000156300211452471124246
418.000000 -0.000293843414276961760207 -0.000066338652936039573557 0.000056062935907448511346 0.000163052446281852168311 0.000167388599347603181161 0.000118045536652020834848
420.000000 -0.000224102434682571678964 -0.000050182546592885395747 0.000044697870616672629254 0.000131518113837959360179 0.000133570237180906733901 0.000091396076216940233604
422.000000 -0.000176678746790975729590 -0.000039581008631433661207 0.000036376982953811626449 0.000109164983238323537386 0.000109904872176523206559 0.000072957037692515652868
424.000000 -0.000144557116536834319226 -0.000032640626143656555731 0.000030335474390332660313 0.000093295038405252712953 0.000093324155848739949307 0.000060239370506775749168
426.000000 -0.000122729409095728670895 -0.000028046791935298899073 0.000025983231986188317747 0.000081945834992173293343 0.000081606484491837359978 0.000051438964856910620097
428.000000 -0.000107655443328766883913 -0.000024914598404809193448 0.000022845962818917881220 0.000073678569484939248875 0.000073167427782385902643 0.000045273914265430769495
430.000000 -0.000096937158851834000412 -0.000022677094299924219537 0.000020563551383309059740 0.000067487611150487055735 0.000066901550350108058163 0.000040840001586554349107
432.000000 -0.000088989531537601515576 -0.000020982654429808684002 0.000018866364212131799699 0.000062672535080356283504 0.000062052180632430855483 0.000037526033084737843296
434.000000 -0.000082800044110076654984 -0.000019628229525879784131 0.000017549745913893556105 0.000058758808969903870967 0.000058124622060856805951 0.000034932119343534563400
436.000000 -0.000077737778657120624732 -0.000018481080424608241759 0.000016493802002089647229 0.000055445598546943598395 0.000054805058836269272609 0.000032804110412676980031
438.000000 -0.000073407356446541686219 -0.000017476823832492150871 0.000015606086387834598744 0.000052546466565460177441 0.000051900204818545120973 0.000030985335546974600784
440.000000 -0.000069578459348564817687 -0.000016567973493118547243 0.000014835685084755778485 0.000049936248520445702351 0.000049274895382735419617 0.000029370660045562546424
442.000000 -0.000066102886152331918369 -0.000015736124387699094876 0.000014136635953823757934 0.000047519459440117722219 0.000046852518559749676684 0.000027899928538258474088
444.000000 -0.000062883316652055719180 -0.000014947175389694891635 0.000013505986696250134725 0.000045271041153048248266 0.000044593965637152925910 0.000026540315711868574429
446.000000 -0.000059890913632163533050 -0.000014224990936947277934 0.000012897029441732043887 0.000043139810452405545919 0.000042466442993568324481 0.000025269729705381081965
448.000000 -0.000057051146248608289129 -0.000013543345121930376842 0.000012311399434126363598 0.000041101246759626050022 0.000040439027342777974898 0.000024065375147956072946
450.000000 -0.000054379469506672075058 -0.000012903603741782582550 0.000011757644882072131479 0.000039179088928761231377 0.000038524553839235729639 0.000022928874382747658621
452.000000 -0.000051833669801185635543 -0.000012294060877719919578 0.000011218112290077396484 0.000037335959245717980628 0.000036701548307567541764 0.000021846950505283328000
454.000000 -0.000049422233632267831066 -0.000011738094018038043223 0.000010671365881944470767 0.000035552505020258509910 0.000034956908446900348782 0.000020815554043060476952
456.000000 -0.000047120445528468511199 -0.000011223772260259417150 0.000010125780621959866635 0.000033830677204150537483 0.000033283671865502902337 0.000019828360476350104930
458.000000 -0.000044919210652797825667 -0.000010712566690742288656 0.000009629242437501499995 0.000032207788162547588398 0.000031701354711524604754 0.000018892401187413840731
460.000000 -0.000042812790074287246313 -0.000010235596125276633458 0.000009135712507640566331 0.000030642004084610466666 0.000030178470662886982059 0.000017994731873718358217
462.000000 -0.000040816950906533036418 -0.000009781957060613221560 0.000008666784505097687236 0.000029149163963959002425 0.000028735464753575192052 0.000017142906419320202494
464.000000 -0.000038893338401241011183 -0.000009334062819129739229 0.000008229800018786217068 0.000027733786508399641251 0.000027356219189169900371 0.000016325195336355404873
466.000000 -0.000037050361958549334388 -0.000008907850064557269748 0.000007814184621282529200 0.000026388311877388659409 0.000026037891736136580532 0.000015543060204754891382
468.000000 -0.000035291481308458696662 -0.000008485385334091469028 0.000007448422219645026539 0.000025137948763309540866 0.000024795950839622097765 0.000014801614166398461043
470.000000 -0.000033590304419603926990 -0.000008069242316589326927 0.000007094219243985699242 0.000023926923154731675016 0.000023596205749829367141 0.000014085919160971007379
472.000000 -0.000031974358832171213916 -0.000007673967081298574077 0.000006764227812825017772 0.000022782527003610015127 0.000022462098699482902051 0.000013409919256607207111
474.000000 -0.000030432648289176125208 -0.000007301072376710885132 0.000006444158323265438711 0.000021685185408648097020 0.000021388348933349359801 0.000012770096108508456723
476.000000 -0.000028965148089360023880 -0.000006950838352199229568 0.000006126163955116293924 0.000020626127935314847206 0.000020351374397305291704 0.000012154549587019967784
478.000000 -0.000027571062802554109183 -0.000006618524542276914249 0.000005822501172062205426 0.000019621427056959308622 0.000019364057443207603244 0.000011566900240010444104
480.000000 -0.000026236122843789205376 -0.000006294640258041669759 0.000005540948874203353778 0.000018666104337341010228 0.000018421184434629392054 0.000011005832986267934895
482.000000 -0.000024955069197156858762 -0.000005974384507995601411 0.000005293602833127280280 0.000017783226950162017900 0.000017527808281504952758 0.000010466798475919853186
484.000000 -0.000023744818607783723497 -0.000005691381420494691159 0.000005030733498425657065 0.000016926267879610004430 0.000016684279920261881069 0.000009960385102727084528
486.000000 -0.000022582581558003910556 -0.000005406962631081463962 0.000004792878315729060418 0.000016102221800952126079 0.000015880232941200234326 0.000009480577000761556224
488.000000 -0.000021481749300638354721 -0.000005142611044255636600 0.000004561973182654505775 0.000015315463515634584427 0.000015096348281547010390 0.000009011886462329084452
490.000000 -0.000020436767901609001512 -0.000004878094323128809769 0.000004360371875086601860 0.000014589170771077151963 0.000014368977320289191322 0.000008575436632374196276
492.000000 -0.000019451929818519678866 -0.000004653694655410748089 0.000004139448982318879673 0.000013878256851870489867 0.000013666497470894418373 0.000008154756469583207386
494.000000 -0.000018499309536557369629 -0.000004433913804038382992 0.000003925339875880354634 0.000013189848001706424067 0.000012996675909767453538 0.000007757365297737726150
496.000000 -0.000017594263899911405608 -0.000004208350382896177822 0.000003739456208494442259 0.000012550541565588064751 0.000012370399399635877174 0.000007382900018310580652
498.000000 -0.000016759405068938189960 -0.000004007207049645004568 0.000003560291785652025405 0.000011951141256806647648 0.000011783941714687880823 0.000007032050630699743059
500.000000 -0.000015948628648300777820 -0.000003826193801268561705 0.000003361327051606769815 0.000011348340363191599097 0.000011217663608115833763 0.000006695801056476728707
502.000000 -0.000015182507678949185983 -0.000003644036700468488740 0.000003200516910286249950 0.000010801797514672017040 0.000010670335536885425863 0.000006369572984958660254
504.000000 -0.000014468420978673840872 -0.000003485334982345374675 0.000003036020502233001683 0.000010281635671244134658 0.000010154478378725961506 0.000006062241723219885521
506.000000 -0.000013758035210609028401 -0.000003312704462737888461 0.000002882920496838374347 0.000009772437470447341390 0.000009657640904630213495 0.000005764874654643514037
508.000000 -0.000013097889501423757371 -0.000003157984127284900168 0.000002743664645248255676 0.000009311289893043856589 0.000009207841866913598933 0.000005494427951779084525
510.000000 -0.000012477373759414456142 -0.000003009953967166154374 0.000002604568966305984607 0.000008859887095821370349 0.000008769414717934547729 0.000005231303469212850045
512.000000 -0.000011879850731608537762 -0.000002869286189268299359 0.000002473986283040752717 0.000008428581066881776334 0.000008344349209629744413 0.000004975280749405739770
514.000000 -0.000011306670646528652028 -0.000002729810032794488602 0.000002357278008624932567 0.000008025662667489759825 0.000007936992053172075019 0.000004732297875709543841
516.000000 -0.000010750602385884734918 -0.000002587850655458518068 0.000002262863443882221261 0.000007657569146741508581 0.000007556272720417489105 0.000004507314482400318615
518.000000 -0.000010263072235760038658 -0.000002485286805869693665 0.000002143394315866637856 0.000007297010178597997686 0.000007209729268707464422 0.000004299454280463598328
518.780000 -0.000025489998280486069441 -0.000020150346936230112611 -0.000017005225299854341802 -0.000009409176982574411359 -0.000001464122583084869059 -0.000003447999363324626836
520.000000 -0.000009775268587437020620 -0.000002357384554118647034 0.000002058155313596416273 0.000006971395066852913439 0.000006889314024312476694 0.000004105148661395423888
522.000000 -0.000009323278463513044964 -0.000002249006151720626363 0.000001948915016577369775 0.000006632345043478294126 0.000006565722158947339223 0.000003913592957310395084
524.000000 -0.000008849610941928065760 -0.000002136660206124647333 0.000001854406668557397472 0.000006309873765513395934 0.000006241748903939328134 0.000003721278973151879480
526.000000 -0.000008440209084525448859 -0.000002058421794690865616 0.000001735998490221079632 0.000005989292417397168142 0.000005941246399729796216 0.000003543251505948206984
528.000000 -0.000008024646324138490853 -0.000001934582199118704877 0.000001681208744388057399 0.000005719221076503855036 0.000005667268549383618768 0.000003378888343989388819
530.000000 -0.000007629303133629977566 -0.000001831295312545317570 0.000001612184810331647021 0.000005448973224701699150 0.000005394893082344878682 0.000003215067588872267423
532.000000 -0.000007280164393197787372 -0.000001749645694528570897 0.000001533179174859969089 0.000005194788479532261991 0.000005143255680303609337 0.000003063699836647551849
534.000000 -0.000006947170568653041352 -0.000001677313846759369965 0.000001446536691621654892 0.000004938174017785160241 0.000004900543613163296567 0.000002920473831447582664
536.000000 -0.000006611901505428804520 -0.000001589285836697715063 0.000001391754443260487594 0.000004725763207146221365 0.000004670674008082141623 0.000002780285207735315761
538.000000 -0.000006298622295721437671 -0.000001514415618427262017 0.000001335587554831226179 0.000004518902325020468461 0.000004456765253387568709 0.000002648592317317037142
538.720000 -0.000006195284631606143179 -0.000001488160248635986647 0.000001313847032652983584 0.000004440955605299947200 0.000004383451218817852991 0.000002605237329948814385
