0.000000 -0.000000000000000000000000 -0.000000000000000000000000 -0.000000000000000000000000 -0.000000000000000000000000 -0.000000000000000000000000 -0.000000000000000000000000
2.000000 0.000308424182138428539315 -0.000270356838997301020776 -0.001058346915745827414648 -0.001069585045975259907439 -0.001369912996345003936005 -0.000357152628406420932696
4.000000 0.000721615854785039403420 -0.000033667271727989557225 -0.002129712681656556038517 -0.002156699925166594145054 -0.001943080471076352646470 -0.000388182398648613785196
6.000000 0.001298048408837791743015 0.000599575483176693403188 -0.002454117694883157108771 -0.002502779811644950148930 -0.002415206817798124395297 -0.000519419351475489902287
8.000000 0.002222116663345592105921 0.001537446556008922318379 -0.002888659460570397376905 -0.002975279368889048158681 -0.003347275468546156117211 -0.000787650041632736953520
10.000000 0.003743078419535940219720 0.003169912071364157195308 -0.003719823205592413025572 -0.003866891092682958434856 -0.004953882640270400664062 -0.001168073443899836534599
12.000000 0.005319132468777905235757 0.004690200032684308656394 -0.005324406998552575973060 -0.005526118151568558921338 -0.006901837059803777457700 -0.001598449787235275282304
14.000000 0.007330559245654466767050 0.006468949583358587010484 -0.008014063850056889551365 -0.008282186064954641033231 -0.009864153988177191620390 -0.002376982273442228201649
16.000000 0.009850424867990198798950 0.008790337989593119752407 -0.011227262108978104324097 -0.011585868552983314555549 -0.013556460248075538621571 -0.003416380867147513628046
18.000000 0.012658543536021839293060 0.011297717110274088994637 -0.014841833342521563651739 -0.015285875868070394195675 -0.017554432588661329772695 -0.004638509405943944986783
20.000000 0.015326711169201865866962 0.013211436309026731300564 -0.018987074414436446584409 -0.019501657009735138409434 -0.021520371458017988064437 -0.005837710030460932682239
22.000000 0.017781463713229795492454 0.014967061328812789749998 -0.022998033305832703970806 -0.023564738375087386501594 -0.024918113252916877092824 -0.007045781667699571940156
24.000000 0.019809370073728193445417 0.015834542609948092095618 -0.027124450727305533109801 -0.027691210077662342659011 -0.028334087987012316484092 -0.008363585081428617090671
26.000000 0.021627294740975133713334 0.016384849937701957689473 -0.030600302369064889124184 -0.031119159100560938452373 -0.031299246120866118514581 -0.009756384254237531958309
28.000000 0.023617032719384443983923 0.017436672573115739176552 -0.032741562993254161306744 -0.033230041975200616533037 -0.033635440741953827326061 -0.011016321286518708857938
30.000000 0.025423899771006761710845 0.017661460798497650298566 -0.035820728726209331849173 -0.036245129543281448536440 -0.036263609030071919381299 -0.012564706540130055403837
32.000000 0.027424949807489211461853 0.018552747554098511506560 -0.038381457263770055177154 -0.038762074511030843171344 -0.038456948777959354401901 -0.013924316832570586208173
34.000000 0.029212184618285074594324 0.018452408730843205403316 -0.041092340515252220867204 -0.041403722242270700470979 -0.040939274460606522865191 -0.015554706477050601887147
36.000000 0.030967653622146623648703 0.018510024171216145350005 -0.044021008615528954555085 -0.044241786430567392462976 -0.043483118966712371034067 -0.017250526234545815462695
38.000000 0.032656619287400538709232 0.018561419287944910111454 -0.046537213456095655184086 -0.046658055523432072353440 -0.045839810138260599081672 -0.018919392734540269040977
40.000000 0.034324655927173264302610 0.018610241305219130808490 -0.048965524801378237929050 -0.048983075090613600877099 -0.048360382061250484220238 -0.020942934677556524630804
42.000000 0.036029601179273056110741 0.019045879718082261988776 -0.050854121073948217734984 -0.050766706700251428008297 -0.051069986332314527832654 -0.023284529468242540217737
44.000000 0.037392895275027468460216 0.019150869125941508142041 -0.053021373557295796430378 -0.052810981620835445449202 -0.053458405277977183445159 -0.025463245628652618479659
46.000000 0.038475467025949269816998 0.018751292985837539339933 -0.055339340728197752850015 -0.055010107445381727087064 -0.056232626338652419439867 -0.027861056302758788888463
48.000000 0.039712349706124819292974 0.018934843686214192920447 -0.057591923581181918290195 -0.057144382766778675786234 -0.059102484691950465944821 -0.030318072891277504654628
50.000000 0.040795708199387506476263 0.018907197136731668241083 -0.059964831511989634404980 -0.059385703800743996905176 -0.061873487278588754079145 -0.032697307083031999785927
52.000000 0.041612681916400197368322 0.019126575225603872215663 -0.061399199993276143416665 -0.060720729362231280756834 -0.064016017822705426065788 -0.034724121469564307729261
54.000000 0.042075444770150176310164 0.018728193100832450646021 -0.063999960478764675309016 -0.063194685436284078750013 -0.066484210407115995611349 -0.036657232533077024894119
56.000000 0.042297033977699433071606 0.018728343639849293067456 -0.065682424276590808953635 -0.064777544205185125236746 -0.068112568664608783008951 -0.037897389148065264985465
58.000000 0.042746034906201713088336 0.018501287394553537352104 -0.068798987448134174549352 -0.067750539759668035322271 -0.070189737509444349861099 -0.039035127082282440602601
60.000000 0.043218623952101284380056 0.018716234583140745756369 -0.070471098703778919936092 -0.069321397775459966950073 -0.071488922545584143719566 -0.039826148829720069144411
62.000000 0.043101132982901323165148 0.017920100617137613152607 -0.072490812592465703190214 -0.071193271368636110163486 -0.072357287892497609838038 -0.040427483647404782729495
64.000000 0.042878411993151843706329 0.017749739279855715479162 -0.071973899619992121046153 -0.070587045524726749201605 -0.071554306064995840119813 -0.040389437163894356674909
66.000000 0.041873377196305544556409 0.016337824994792665700416 -0.072020711282156008037347 -0.070516922845599239177972 -0.070085296906534713667902 -0.039894125031746323351012
68.000000 0.040851304711275585046515 0.015475402811495017965648 -0.070277604756927222751095 -0.068720939445835182990407 -0.068039313430626552348102 -0.039218253407345346484014
70.000000 0.040037501531341494753757 0.014633677180633124226272 -0.068306386500240956483054 -0.066691703825884504630572 -0.065715496233585884988671 -0.038414382355695261828110
72.000000 0.039164059188248320775294 0.013910780948541732332524 -0.065830611562153348859106 -0.064185191135840660714429 -0.063380092642463720098434 -0.037556626182325726637234
74.000000 0.037382453207458053723311 0.012246794650289959116574 -0.064355861901430097549159 -0.062683993840048191081848 -0.061106886671891832985004 -0.036542074093020668335008
76.000000 0.036025320263974924817063 0.010902173822470441824639 -0.063484531130951316058031 -0.061784502524366943787548 -0.059131225968919003121993 -0.035617097222096057163032
78.000000 0.034394492952326854995349 0.009515541899826304370058 -0.061824200117456262759674 -0.060127917819969331492125 -0.056737852114839282258174 -0.034418416245457800206609
80.000000 0.032518015265527999702044 0.007742112850075526242488 -0.060521263868409544417482 -0.058820785373638800885843 -0.054526977304526574874544 -0.033263063322640576413569
82.000000 0.030663808433074767750837 0.006119928597052300134340 -0.059113240415991523402095 -0.057420461960005268753360 -0.051624666703558738656277 -0.031621515502779147521739
84.000000 0.028832418112185301262151 0.004418798636867083198809 -0.057746047799611142925524 -0.056075062651684402792451 -0.048550436232085415755311 -0.029819077695407265882199
86.000000 0.026440623838361806963171 0.002401613610224357080875 -0.055734881588633509996722 -0.054106757564378021863050 -0.044280156340625494160168 -0.027049124129563655721809
88.000000 0.024425187573822768061227 0.000828449083533743056013 -0.053390109943396830971540 -0.051831444177646415760741 -0.040226362976144326710770 -0.024518349893303176267878
90.000000 0.022369929976410362487682 -0.000923898505839414554454 -0.051364555814239772069119 -0.049882739384700038043352 -0.036414035969991882801811 -0.022193890836987827108739
92.000000 0.021232650783194272070542 -0.000503691997256998022503 -0.046724132842178238422814 -0.045389365498574432700174 -0.032575509119693098203374 -0.020147425410017641422833
94.000000 0.020726096927465055552720 0.001215764415368333949477 -0.041054023963329980273507 -0.039882727307570926822411 -0.029025796808562653872343 -0.018397910596809660677131
96.000000 0.020636290657255456498786 0.003678602922268590924570 -0.035021152132330882200684 -0.034023133901534115264287 -0.025613896394135322182040 -0.016764797821090780122200
98.000000 0.020813415591737563503649 0.007342844020883771555264 -0.026522443121958561018658 -0.025721119230865754218263 -0.021940323920086268749685 -0.015232141071012601438173
100.000000 0.020503498722035266854657 0.010542494037059360265096 -0.018461218744675739200645 -0.017863422987089191962262 -0.018258426147387315369164 -0.013509861115545727244802
102.000000 0.019309312578850896385818 0.011447217447401104861715 -0.013754822851041275527662 -0.013299948312189132856864 -0.015468924785728683721220 -0.011981362614444976411043
104.000000 0.018020420585515815187216 0.011461927608663166969216 -0.010682574577002848514873 -0.010331836892797097160468 -0.013179398547241387776308 -0.010603292306398264671641
106.000000 0.016585247546862687956226 0.010942720612694925574893 -0.008388661500273888668722 -0.008105270107670892523744 -0.011324916632383592515754 -0.009444192679247885927052
108.000000 0.015332247631319398037397 0.010240594496086698195203 -0.006838739315063516871485 -0.006598597303050217181830 -0.009895633223782370271882 -0.008518343259694026101125
110.000000 0.014055774982854403812316 0.009330926631104820984097 -0.005954953247259849556661 -0.005741337399574936509183 -0.008730846699799052479385 -0.007648445805135235635308
112.000000 0.012578127701056594431317 0.008209677411610468225622 -0.005185416067328508203660 -0.004994571136754183231232 -0.007621105981863053949188 -0.006810175761800916528765
114.000000 0.010792678832931244803373 0.006723949875740552889480 -0.004520810265558183188572 -0.004351575726808847369154 -0.006473889078816423905960 -0.005925015412496990180324
116.000000 0.009252472787564275380490 0.005628838229376305866969 -0.003694957405920470863009 -0.003549020923084034509487 -0.005381951608924894284169 -0.005097604332396261060667
118.000000 0.007703416747874092772308 0.004504485896690408469611 -0.002899851978642961972121 -0.002776721904789017369986 -0.004275657421348891956692 -0.004240623717508865478387
120.000000 0.006225841928266231430078 0.003589679140108893370953 -0.001972578422800038474433 -0.001874286006033207101218 -0.003156831487716376533070 -0.003376690440746613584844
122.000000 0.004924975549398046860416 0.002863797523715060425187 -0.001081158154382797593682 -0.001006200817352091020362 -0.002118390460263759340204 -0.002563058203473644186543
124.000000 0.003712746458336817559354 0.002267627731793923993170 -0.000173475252080579393993 -0.000122096721467606771517 -0.001104053238416477988534 -0.001763476379827057542379
126.000000 0.002621566578751025923533 0.001658665174120980793926 0.000479136214553124847523 0.000511290669774404631272 -0.000260821086545637954249 -0.001072733345728598504040
128.000000 0.001654215160193097181041 0.001141605879249421280977 0.001082911745069283599927 0.001098865285758366490063 0.000460517001541437464782 -0.000495099382378781996406
130.000000 0.000751799947176203615593 0.000606434431868597945657 0.001538635874054250637574 0.001541614240557882169538 0.001075710479274836735633 0.000012430883746748728818
132.000000 0.000030020676909075250804 0.000212559560460926199590 0.001939067665013034054075 0.001930803055119850123594 0.001588925957486803097751 0.000433401233624276370927
134.000000 -0.000563947308542568420328 -0.000107770889294141845459 0.002283837701551326947180 0.002266785189366354088397 0.002008792689431906225428 0.000772428614028195935533
136.000000 -0.001072720785771502649553 -0.000396980894611392355099 0.002536506370841313823955 0.002512579424256886160421 0.002342357085160175125121 0.001044665173074917205107
138.000000 -0.001391021358935600957252 -0.000551643931377429272422 0.002752106676728147734851 0.002723028940372712591866 0.002584500355605060147035 0.001234103601714534384493
140.000000 -0.001706610645173480510228 -0.000756849894832020307286 0.002866310481048784091634 0.002833920295226719562182 0.002755984105557223937111 0.001370017143536082174921
142.000000 -0.001777880365330274624325 -0.000789253661013446196001 0.002947386802110783365211 0.002913296019412714172453 0.002831614332601052694965 0.001418070202193885990735
144.000000 -0.001838550821040079016541 -0.000819333592442233289363 0.003015754167561654919966 0.002980298593409801480303 0.002897736671641211979311 0.001459897146608098855713
146.000000 -0.001900795711633106871430 -0.000851653127653756122396 0.003079145882607501119588 0.003042441135085073664751 0.002961923200852398067873 0.001501267561818752900929
148.000000 -0.001961643202923740638560 -0.000884017160927086289440 0.003138042976291482294426 0.003100216988278048629163 0.003023132584000670294855 0.001540870639266668420259
150.000000 -0.002019782482740171969393 -0.000915419769570114446461 0.003192877128074787101975 0.003154054168278811343812 0.003081076355312437758949 0.001578201706371110688357
152.000000 -0.002074542304584434896514 -0.000945291656431611012658 0.003244133859757468082985 0.003204429318396527850976 0.003135777357959081395461 0.001613078354409869285060
154.000000 -0.002125661232154372158598 -0.000973354302016518299102 0.003292323407469983746754 0.003251841738109435657467 0.003187443695915222890980 0.001645514262350178955399
156.000000 -0.002173174107943463134740 -0.000999534663872579578342 0.003337965992100833806377 0.003296799597457098982001 0.003236409795840467298889 0.001675660866825841831262
158.000000 -0.002217331061426230758016 -0.001023914114113672838707 0.003381575338998491116194 0.003339804336253672512047 0.003283087380990190422281 0.001703759208763776233919
160.000000 -0.002258515373134878899408 -0.001046670936513187074104 0.003423645434925513906382 0.003381337939915148634723 0.003327927034460687830825 0.001730102085724258059382
162.000000 -0.002297181055784996983604 -0.001068035319398281859232 0.003464638675396933611972 0.003421851525347587106435 0.003371387078699369932444 0.001755003469872421124898
164.000000 -0.002333809108897445805386 -0.001088266433493010210826 0.003504978548879864909404 0.003461758360712940095494 0.003413911211743450406508 0.001778775784466619935831
166.000000 -0.002368872332704997397956 -0.001107623142542732462903 0.003545050462476111337307 0.003501434785982782214170 0.003455916722019308339603 0.001801716374127877197397
168.000000 -0.002402817245828195707319 -0.001126353675397536802452 0.003585200114070467673766 0.003541218569764778383024 0.003497786773604096271367 0.001824099563556471053499
170.000000 -0.002436051198614026108702 -0.001144686859704255712036 0.003625736971398900616859 0.003581412376569779662527 0.003539868274260420197980 0.001846172424392183378933
172.000000 -0.002468942264301964006901 -0.001162830992264635588535 0.003666934845040682993539 0.003622284294833849095652 0.003582472805944381284704 0.001868154768918535088562
174.000000 -0.002501816363681055779139 -0.001180972503518423538313 0.003709038760535861723594 0.003664074617802726748644 0.003625879777968389616749 0.001890240629271710106132
176.000000 -0.002534960236378436520405 -0.001199272923728545835881 0.003752274516357383387505 0.003707005075698393929684 0.003670342347187259893215 0.001912601353840556132196
178.000000 -0.002568631187695393988668 -0.001217884185280654991620 0.003796838738811282847746 0.003751269124915413300664 0.003716088092947939913041 0.001935387410745332712955
180.000000 -0.002603053688144171557567 -0.001236934946256414450880 0.003842919509770005050131 0.003797052140394197982526 0.003763327061707811508479 0.001958732836559410207117
182.000000 -0.002638431141462062225894 -0.001256542983082730054190 0.003890693552636400806555 0.003844528630169344058515 0.003812256524362994409422 0.001982758820969134951062
184.000000 -0.002674947555520119923944 -0.001276817790988652150802 0.003940326292729523852132 0.003893862326804800339658 0.003863060353690691076101 0.002007574470821647111274
186.000000 -0.002712773011167089742823 -0.001297860198923507296306 0.003991979860341062814888 0.003945213912457660142274 0.003915918127524887354385 0.002033282003927282949318
188.000000 -0.002752067663803238906778 -0.001319766260737745625087 0.004045814633674053341361 0.003998742655122805404744 0.003971005912863140654978 0.002059977848569898104675
190.000000 -0.002792984829456379106821 -0.001342628239069992976060 0.004101991750772025421834 0.004054608753135126655853 0.004028497881551048979965 0.002087754304626815351348
192.000000 -0.002835673737222110975253 -0.001366535635011532391625 0.004160677588299852187881 0.004112977812832650445496 0.004088572469301985680412 0.002116702571670141166255
194.000000 -0.002880284704161904883041 -0.001391582892056770180689 0.004222037705088418739485 0.004174014898012210796063 0.004151410821846804495572 0.002146913194774626842259
196.000000 -0.002926967619771640195803 -0.001417861615545643830943 0.004286249749469478453889 0.004237897153637355460165 0.004217202081550865643000 0.002178478455402370513039
198.000000 -0.002975878063278715977835 -0.001445469763217854591505 0.004353496103340650374980 0.004304806678642086534281 0.004286142339961579450502 0.002211492143380691666188
200.000000 -0.003027176707342827451791 -0.001474507192799568962641 0.004423971364212459303489 0.004374937782173173202172 0.004358439846642561156520 0.002246052783607239543978
202.000000 -0.003081030552885455960771 -0.001505079038561890755407 0.004497880081202207391833 0.004448494849245915663816 0.004434313433561500560065 0.002282262483193716988417
204.000000 -0.003137616672656729551599 -0.001537298372170612346943 0.004575439767062160038857 0.004525695301374037422815 0.004513995853331567546796 0.002320228813909833761459
206.000000 -0.003197122738751696693210 -0.001571283521512696883943 0.004656884344217037709213 0.004606772993607444882658 0.004597735621663390399860 0.002360065932925315291407
208.000000 -0.003259748262196024686660 -0.001607162926514666724531 0.004742459630132471459785 0.004691973784416246691376 0.004685797288824735187807 0.002401894944541461442145
210.000000 -0.003325706366342024312283 -0.001645073149614356862458 0.004832432474171025581222 0.004781564571246691743023 0.004778465046759911884211 0.002445845259001004981525
212.000000 -0.003395224544524542281687 -0.001685160671385471957071 0.004927085555982881580339 0.004875828155036148435497 0.004876042414124642267181 0.002492054813072314828348
214.000000 -0.003468546957535989603422 -0.001727582863842346905595 0.005026723473122210981978 0.004975069247315617136651 0.004978854164262126041907 0.002540670892952466824316
216.000000 -0.003545934685022538411514 -0.001772508245267414780932 0.005131671985066012242616 0.005079613764357298992536 0.005087249340448984392948 0.002591851893506026162373
218.000000 -0.003627667729242668205603 -0.001820117340349606573080 0.005242280371303499435232 0.005189811132132002291506 0.005201601649800500007381 0.002645767281727385601686
220.000000 -0.003714047301748903042590 -0.001870606599576220404821 0.005358921703183390852776 0.005306034632688130456279 0.005322311640826696971240 0.002702598868727817179453
222.000000 -0.003805394969708593075342 -0.001924183557147588147576 0.005481996745315726934922 0.005428685191916245850186 0.005449808138778830871041 0.002762541498267804054856
224.000000 -0.003902055383433119650077 -0.001981071086821800230487 0.005611934388806460831389 0.005558191813439403161645 0.005584549217858612510379 0.002825803591811566328057
226.000000 -0.004004397820523976705975 -0.002041509307757006889961 0.005749191483968578604558 0.005695011414420408403514 0.005727025430329363460402 0.002892609423437620015662
228.000000 -0.004112815673303062309618 -0.002105751738083796661960 0.005894256614905672014837 0.005839632519858035074323 0.005877759087327003896528 0.002963198439477282477433
230.000000 -0.004227728357339686528216 -0.002174068460849891588904 0.006047650139690349466171 0.005992575303789240276364 0.006037306579648603517552 0.003037826648246382335583
232.000000 -0.004349584555946602211496 -0.002246749832308233326555 0.006209922397403077991285 0.006154389850503659380176 0.006206259856053042249513 0.003116768217474373374454
234.000000 -0.004478861899946212817014 -0.002324103603638252336927 0.006381659801318008071180 0.006325662068076554067630 0.006385248160047834846409 0.003200315941248345341652
236.000000 -0.004616071272833519034684 -0.002406461364003893363406 0.006563480649118016291288 0.006507009744823534676261 0.006574939825791111837339 0.003288782304988223121472
238.000000 -0.004761759985047302363992 -0.002494179580188226903054 0.006756040443845863323336 0.006699087782348422427658 0.006776048038853494867584 0.003382501985130617703362
240.000000 -0.004916519028171991052834 -0.002587648767945579207639 0.006960032120173382207129 0.006902588719683784221348 0.006989335099906926647428 0.003481833390227382241805
242.000000 -0.005080992654765179028509 -0.002687302629879829204279 0.007176191660832006470605 0.007118248582808374240460 0.007215621190017183599064 0.003587161191047995734832
244.000000 -0.005255888158993027303723 -0.002793627521771848299520 0.007405307679209344011440 0.007346856869584008666030 0.007455798626048827822121 0.003698900588733103692030
246.000000 -0.005441996367350571996158 -0.002907185576646585580679 0.007648228449160887273961 0.007589264162959893054994 0.007710848494966426533437 0.003817502650826766572717
248.000000 -0.005640207011880552477601 -0.003028626329965339314398 0.007905886649686643882773 0.007846407487168359159990 0.007981865747574617975246 0.003943460603231889113895
250.000000 -0.005851534538555779214886 -0.003158713227699031129980 0.008179320100612799682160 0.008119331786489341132307 0.008270085563127679839646 0.004077317144186096663228
252.000000 -0.006077139430996756144787 -0.003298339912388054823156 0.008469707346040633577644 0.008409226109878360430616 0.008576915950310725136885 0.004219673656923174018263
254.000000 -0.006318349290504876245023 -0.003448547276136549114001 0.008778398591109091986251 0.008717455031837011147910 0.008903967932235398730079 0.004371199544053186274162
256.000000 -0.006576672131859816021471 -0.003610526347599295020341 0.009106957030767189736897 0.009045599872522139262010 0.009253079799040058936455 0.004532640163796408834529
258.000000 -0.006853797110205382160653 -0.003785608436471072160701 0.009457189425700224597038 0.009395488605537748866281 0.009626330620896222239891 0.004704824076416180486659
260.000000 -0.007151575346079423224632 -0.003975228607554626321374 0.009831170457456536379559 0.009769218483803345995375 0.010026032067167713057732 0.004888665550099982430587
262.000000 -0.007471979255508490354309 -0.004180867911193518644819 0.010231241230351451748648 0.010169151773473692618177 0.010454691248577254597540 0.005085162054290057534467
264.000000 -0.007817038504408173327231 -0.004403972644025299157389 0.010659970714459100771254 0.010597873443002095786292 0.010914939085664003906584 0.005295384970987436490386
266.000000 -0.008188752586952563472522 -0.004645849798555831342006 0.011120082635045920246841 0.011058113250694530729779 0.011409427308780917265096 0.005520464512066049385386
268.000000 -0.008588999470891475057632 -0.004907570393353521617796 0.011614332811291630878636 0.011552618466801660435106 0.011940701954965186534774 0.005761569610215656021823
270.000000 -0.009019450881035012343445 -0.005189887096898431785574 0.012145356029151942525712 0.012083996757183548126369 0.012511076182404918741287 0.006019888418286186218542
272.000000 -0.009481525643635392575082 -0.005493210449236387779570 0.012715497174527554818946 0.012654545742278621930921 0.013122533940958318668391 0.006296612931992425117589
274.000000 -0.009976397573606870031182 -0.005817653349950453051109 0.013326676056090159400158 0.013266119362111861157416 0.013776700707123314126878 0.006592935686422070513946
276.000000 -0.010505072929253617478040 -0.006163159365644764985104 0.013980313929033353140263 0.013920059878211462137121 0.014474898991115502100424 0.006910060251258965009769
278.000000 -0.011068534358944767670430 -0.006529706598609338018269 0.014677352338470702267093 0.014617226050456054789461 0.015218295240858747616186 0.007249225649451675364265
280.000000 -0.011667952946201712999263 -0.006917579307990430123598 0.015418378212325235462887 0.015358130317441971365855 0.016008136297718859181183 0.007611747098873140882080
282.000000 -0.012304946228604738203694 -0.007327681718848498039487 0.016203847119099515361462 0.016143175940127096890109 0.016846054664093831204630 0.007999068077335649840087
284.000000 -0.012981878855478086454145 -0.007761882776437138004022 0.017034395075813411890575 0.016972983232095954081453 0.017734430221110028536025 0.008412825844633764482694
286.000000 -0.013702196715978781291212 -0.008223377380571935540976 0.017911226622896226495785 0.017848791899482061018567 0.018676797798061597899455 0.008854927171235801863780
288.000000 -0.014470753597171880783234 -0.008717006871724820166181 0.018836608685886827713185 0.018772967234229803734635 0.019678290893462142135961 0.009327632556415256515070
290.000000 -0.015294016976510886596241 -0.009249388681197696221448 0.019814523950817012482029 0.019749659340845292232469 0.020746066031299571080782 0.009833629909010556044424
292.000000 -0.016179823021972353919162 -0.009828443839371486454026 0.020851600341130465537942 0.020785719015376853679999 0.021889534973110719162648 0.010376054504634472236413
294.000000 -0.017136006363208222680328 -0.010461504572193965761917 0.021958327287434201147143 0.021891852713745874742246 0.023119855021716078508076 0.010958314560336211707092
296.000000 -0.018167063596233927469381 -0.011151074377954395613899 0.023149768406634890077767 0.023083188135753711367482 0.024447392235223758955032 0.011583421506086379396128
298.000000 -0.019268973823343638063221 -0.011888659970378918917522 0.024443162020467555650693 0.024376639280742268267588 0.025875493755395408829179 0.012252500229603198803052
300.000000 -0.020424687753842915571845 -0.012650017563105497506171 0.025849773910834056983576 0.025782537471583030774802 0.027391913384528013969410 0.012963018608427389830040
302.000000 -0.021604154496188389400491 -0.013396377969887565337337 0.027363940785213959616673 0.027293637175581610815334 0.028965478543167937075520 0.013708727672319093171538
304.000000 -0.022770424164856487014852 -0.014083119425840777416692 0.028956820922501850384956 0.028879110466034755427822 0.030553797190624253088398 0.014482283437924268337804
306.000000 -0.023889102703967900198645 -0.014672374939183448205871 0.030579050977626774654450 0.030487720418142502665226 0.032115572861743886534658 0.015277856409468456785894
308.000000 -0.024936059884309032252947 -0.015142649704942714658507 0.032172530155011237751328 0.032060224294506889375356 0.033618250643821519230148 0.016091048219202663122074
310.000000 -0.025898984049677054031235 -0.015489488454097855713032 0.033685723393332693553770 0.033544984153454110442638 0.035039735299881004382261 0.016917484863939201422678
312.000000 -0.026773046965373428762724 -0.015718484551902285606406 0.035083340102891338863067 0.034907409423386229208042 0.036367124646885039263022 0.017752358050394181215870
314.000000 -0.027555518458015904048608 -0.015838136063329261160604 0.036347781247124719139485 0.036130913410258848339485 0.037594613657786601912392 0.018590721020044977118690
316.000000 -0.028243183453345078320895 -0.015857565443767485113824 0.037475324878970789344024 0.037212760345614472046183 0.038720975582902002198882 0.019427438112820043236706
318.000000 -0.028832577277967223750021 -0.015787627273061401872445 0.038470352842893906775146 0.038158228223078322072226 0.039746790683876584426848 0.020256601281096988514951
320.000000 -0.029321168412480697051947 -0.015641479943814644293365 0.039340176511503524570124 0.038975529445036127818014 0.040672077387265997971966 0.021070597864108798341620
322.000000 -0.029707783275512336662594 -0.015433268933900947880722 0.040091386330763909007224 0.039672263256473820625114 0.041494338987161510923229 0.021858764675875733130006
324.000000 -0.029991342241430459653051 -0.015175142114548761940185 0.040728743414768328601205 0.040254303801677028540329 0.042207259098739687008806 0.022606095884564365861014
326.000000 -0.030169077920497257283561 -0.014874332907898789660206 0.041256161539278572714107 0.040726667139732074252034 0.042800310142946919322871 0.023292867909119191471845
328.000000 -0.030236466166280361045349 -0.014532913885935298814456 0.041677299299708404911602 0.041093977037804915730668 0.043259073637126790878860 0.023895653490904108368076
330.000000 -0.030188937488669027875421 -0.014150286218340754965106 0.041994427825656953368050 0.041359283810461021368976 0.043566496220161732289000 0.024389770986852632450592
332.000000 -0.030023734831144534979108 -0.013726159728359615605497 0.042206449578147543777451 0.041522121950184016914154 0.043705234820650848415191 0.024752786233459382614353
334.000000 -0.029741530067551917582147 -0.013262988412848666572308 0.042306565965309822496820 0.041576273059751728267130 0.043659881638605270437470 0.024968234724259703166682
336.000000 -0.029347546821831278773818 -0.012767113622168998685047 0.042279999430870414400818 0.041507595986489217998461 0.043417294149596621921638 0.025027943074706193032908
338.000000 -0.028850253120678358981221 -0.012246756762057574297042 0.042103788520609565504405 0.041293878380856914589447 0.042964923548654707086136 0.024931053507243314953934
340.000000 -0.028257771788478221186569 -0.011707806754558534867439 0.041751125275132534853118 0.040909130184357329895750 0.042290690214919442191377 0.024680992468511658843866
342.000000 -0.027576035509348759827697 -0.011152057985420901070617 0.041199680299189481158528 0.040331792626775900267866 0.041388209151310410838231 0.024284204736200281499192
344.000000 -0.026810203193909500768433 -0.010578976993576202567104 0.040441228385511188148094 0.039554237025007273065302 0.040264752912912468718609 0.023751325076828463944700
346.000000 -0.025965991028384625277647 -0.009987217414740078708091 0.039487677866081906385975 0.038588688665105327912919 0.038943731818212576345495 0.023097433322131103589081
348.000000 -0.025049380058132900833678 -0.009374556425637177448085 0.038370236022991895119549 0.037466345755409032058925 0.037459021953864100884513 0.022339656830142762961033
350.000000 -0.024067028364365968678973 -0.008739433714733941746533 0.037130312267715771812338 0.036228348826925410586242 0.035845845511240037595257 0.021494008609237572060557
352.000000 -0.023027434549612275233033 -0.008083722544266730425377 0.035805876516497602002342 0.034912275409051791996706 0.034133171298200828958080 0.020573359482569612138869
354.000000 -0.021941098354019774457901 -0.007413451862353026382280 0.034422126657625229384507 0.033542918295648552207133 0.032340724595383202322196 0.019587170261611466098861
356.000000 -0.020820546484219933786042 -0.006738667181324662150410 0.032990178389174423800867 0.032131039995195599667799 0.030481448604567154547773 0.018543163223737675615599
358.000000 -0.019680322643327669007718 -0.006073554881761407051033 0.031509924660663386764003 0.030676277936156626235942 0.028566838609472025578562 0.017450049209258182425497
360.000000 -0.018535831704302833944364 -0.005435629028600679965577 0.029973189313395272315166 0.029170329524348153488189 0.026611003136995142054344 0.016319394491995244111937
362.000000 -0.017402185956862364218933 -0.004845227355563066530542 0.028365543227853964869389 0.027598773072552131024882 0.024631030771296552606131 0.015165489796587796472727
364.000000 -0.016294763406992696791464 -0.004327375541842872277987 0.026666131927254779071523 0.025940881035163433632196 0.022645401564434373270496 0.014004436126019269986953
366.000000 -0.015230966739207780352716 -0.003914176620281105238586 0.024848102761072105026940 0.024169978449488115079813 0.020673219344443313771897 0.012853735127623212158854
368.000000 -0.014230049160894380974596 -0.003641476136326210564370 0.022885388407310608416267 0.022260003651046224304455 0.018734251889185801753790 0.011731421470081004193586
370.000000 -0.013307662947668769462539 -0.003534557162999853435065 0.020769142814343843211899 0.020201567611628237775001 0.016848838735887133877256 0.010653729236706125857448
372.000000 -0.012467347938368702336964 -0.003589628205598723465625 0.018525378636702428958305 0.018019317322729249547519 0.015037672817409877823458 0.009632524811102926090567
374.000000 -0.011696185136575143123649 -0.003766205905957134732198 0.016219561377619214070922 0.015776608665034788647752 0.013321559550924491968638 0.008674472936123677618836
376.000000 -0.010968377506779033309092 -0.003995978678876857363711 0.013945135323513799946449 0.013564375748991639586416 0.011720589970866352597101 0.007782119100883679550795
378.000000 -0.010255066865783021845537 -0.004203510332957633398310 0.011800854382144490908879 0.011478896319697657821268 0.010251843685034598557815 0.006955778700138671999387
380.000000 -0.009534602790063040692048 -0.004328595384189424383203 0.009865731325055332456841 0.009597161450950715891328 0.008926216273565486941655 0.006194943741299177922266
382.000000 -0.008796754723526378078047 -0.004337936225038871787540 0.008184538996223081341874 0.007962656240169037683008 0.007746641621150045751987 0.005498506238705341310491
384.000000 -0.008040416027929981127031 -0.004223203485342723502438 0.006768491236709423507223 0.006586123242167913477418 0.006708204731583937256711 0.004863958876949045322113
386.000000 -0.007270214279886756669757 -0.003994141992709500203762 0.005602926060844943059736 0.005453172282038171517216 0.005799194175777937047822 0.004286754487626490660312
388.000000 -0.006494464268943311337223 -0.003672236106686822734030 0.004655985761762376773376 0.004532763978404285958035 0.005003232765014410145243 0.003760740705860637564384
390.000000 -0.005723810415261530205877 -0.003284917240316701479708 0.003887964505208277819770 0.003786264098346309083659 0.004302583734712058134708 0.003279493621851493987546
392.000000 -0.004970270224004608855539 -0.002860776871949718361959 0.003259594745596226458839 0.003175460700445918889312 0.003681305165780162334810 0.002837640872473724991398
394.000000 -0.004246643922453271352557 -0.002426719334870710512858 0.002736938570217237534643 0.002667311480009054974055 0.003126873688386363168978 0.002431466255741246071387
396.000000 -0.003565523556407735987495 -0.002006038906807396018234 0.002293245548957601343681 0.002235770082358078895274 0.002630286811814737737980 0.002058765010399562014887
398.000000 -0.002937916077351179332949 -0.001616719136490662924593 0.001909393871052528397769 0.001862238153721027010892 0.002185584028785194678213 0.001718505686744637231400
400.000000 -0.002372206656671226043809 -0.001270364197139143939974 0.001573481457224081133880 0.001535173560704938561933 0.001789407967084927783899 0.001410690513160598900597
402.000000 -0.001873978758819754963233 -0.000972707701459274518691 0.001279275098683163927604 0.001248567034681367492882 0.001440418565672580992337 0.001136204037861792076960
404.000000 -0.001446360583566246374443 -0.000725226519272462850051 0.001023878276444157046574 0.000999650077427278278483 0.001138290307527157520229 0.000896315831845530784638
406.000000 -0.001090270250630289263286 -0.000526713303143091626096 0.000805797579269173125556 0.000787006836833587159787 0.000882715984252693190541 0.000692004702685271701548
408.000000 -0.000804099004600341117979 -0.000373849942077237608860 0.000623865404014989030114 0.000609532466883004890763 0.000672649261664901108176 0.000523356247407134270860
410.000000 -0.000583126981731390842817 -0.000261261336856208282921 0.000476645083963662290812 0.000465857871720578664652 0.000505758014192644812963 0.000389124474239227067986
412.000000 -0.000419251049892160865783 -0.000181758057029871944541 0.000361734789557226731060 0.000353670775752515224345 0.000377995075708618629741 0.000286398445298643815598
414.000000 -0.000301792015996874614814 -0.000127365094731728860974 0.000275218424838440502492 0.000269175319700762144190 0.000283541503087816578518 0.000210629661764258997378
416.000000 -0.000219525875925631678816 -0.000090765333974553418775 0.000211965867433491864666 0.000207381877601580571005 0.000215540794934426023933 0.000156300211452471124246
418.000000 -0.000162713907493667518612 -0.000066338652936039573557 0.000166601484548768892513 0.000163052446281852168311 0.000167388599347603181161 0.000118045536652020834848
420.000000 -0.000123875171992570890346 -0.000050182546592885395747 0.000134339504935099079107 0.000131518113837959360179 0.000133570237180906733901 0.000091396076216940233604
422.000000 -0.000097532779897612623446 -0.000039581008631433661207 0.000111477255582991202978 0.000109164983238323537386 0.000109904872176523206559 0.000072957037692515652868
424.000000 -0.000079739040890085767965 -0.000032640626143656555731 0.000095250944043235279005 0.000093295038405252712953 0.000093324155848739949307 0.000060239370506775749168
426.000000 -0.000067674329711058927314 -0.000028046791935298899073 0.000083650951909949465470 0.000081945834992173293343 0.000081606484491837359978 0.000051438964856910620097
428.000000 -0.000059358713711771089673 -0.000024914598404809193448 0.000075204034361929934490 0.000073678569484939248875 0.000073167427782385902643 0.000045273914265430769495
430.000000 -0.000053448390845892306314 -0.000022677094299924219537 0.000068880948473936154971 0.000067487611150487055735 0.000066901550350108058163 0.000040840001586554349107
432.000000 -0.000049066788820116201636 -0.000020982654429808684002 0.000063964886003484256274 0.000062672535080356283504 0.000062052180632430855483 0.000037526033084737843296
434.000000 -0.000045651403638458534046 -0.000019628229525879784131 0.000059969975228527708764 0.000058758808969903870967 0.000058124622060856805951 0.000034932119343534563400
436.000000 -0.000042857065958325200081 -0.000018481080424608241759 0.000056588828828755174927 0.000055445598546943598395 0.000054805058836269272609 0.000032804110412676980031
438.000000 -0.000040464511747585426606 -0.000017476823832492150871 0.000053630592164021336160 0.000052546466565460177441 0.000051900204818545120973 0.000030985335546974600784
440.000000 -0.000038347783256329827947 -0.000016567973493118547243 0.000050967391316308900586 0.000049936248520445702351 0.000049274895382735419617 0.000029370660045562546424
442.000000 -0.000036427873113898938287 -0.000015736124387699094876 0.000048501773626903724223 0.000047519459440117722219 0.000046852518559749676684 0.000027899928538258474088
444.000000 -0.000034648935704277872033 -0.000014947175389694891635 0.000046207905772075690400 0.000045271041153048248266 0.000044593965637152925910 0.000026540315711868574429
446.000000 -0.000032995078500932037554 -0.000014224990936947277934 0.000044033567114523781917 0.000043139810452405545919 0.000042466442993568324481 0.000025269729705381081965
448.000000 -0.000031431322769167714204 -0.000013543345121930376842 0.000041953651844820839866 0.000041101246759626050022 0.000040439027342777974898 0.000024065375147956072946
450.000000 -0.000029960105039548871262 -0.000012903603741782582550 0.000039992133359872508226 0.000039179088928761231377 0.000038524553839235729639 0.000022928874382747658621
452.000000 -0.000028557320610261752831 -0.000012294060877719919578 0.000038111136014762463109 0.000037335959245717980628 0.000036701548307567541764 0.000021846950505283328000
454.000000 -0.000027232351293074154942 -0.000011738094018038043223 0.000036290744597744694830 0.000035552505020258509910 0.000034956908446900348782 0.000020815554043060476952
456.000000 -0.000025968169648708780065 -0.000011223772260259417150 0.000034533196206903998436 0.000033830677204150537483 0.000033283671865502902337 0.000019828360476350104930
458.000000 -0.000024758071153150448335 -0.000010712566690742288656 0.000032876890929933670735 0.000032207788162547588398 0.000031701354711524604754 0.000018892401187413840731
460.000000 -0.000023602170838670828322 -0.000010235596125276633458 0.000031278448079155106822 0.000030642004084610466666 0.000030178470662886982059 0.000017994731873718358217
462.000000 -0.000022503632803610579125 -0.000009781957060613221560 0.000029754945567102610569 0.000029149163963959002425 0.000028735464753575192052 0.000017142906419320202494
464.000000 -0.000021445040335489158953 -0.000009334062819129739229 0.000028310113176046867761 0.000027733786508399641251 0.000027356219189169900371 0.000016325195336355404873
466.000000 -0.000020431917995363334088 -0.000008907850064557269748 0.000026936768367125053705 0.000026388311877388659409 0.000026037891736136580532 0.000015543060204754891382
468.000000 -0.000019463296025585588545 -0.000008485385334091469028 0.000025660330579294469999 0.000025137948763309540866 0.000024795950839622097765 0.000014801614166398461043
470.000000 -0.000018523808460290479131 -0.000008069242316589326927 0.000024424036033840670895 0.000023926923154731675016 0.000023596205749829367141 0.000014085919160971007379
472.000000 -0.000017632243862047058193 -0.000007673967081298574077 0.000023255979962521462843 0.000022782527003610015127 0.000022462098699482902051 0.000013409919256607207111
474.000000 -0.000016785574078133784671 -0.000007301072376710885132 0.000022135881767548951608 0.000021685185408648097020 0.000021388348933349359801 0.000012770096108508456723
476.000000 -0.000015974050656122562938 -0.000006950838352199229568 0.000021054973920559490094 0.000020626127935314847206 0.000020351374397305291704 0.000012154549587019967784
478.000000 -0.000015204486493547743060 -0.000006618524542276914249 0.000020029453204442938422 0.000019621427056959308622 0.000019364057443207603244 0.000011566900240010444104
480.000000 -0.000014463419868317858380 -0.000006294640258041669759 0.000019054349969057959223 0.000018666104337341010228 0.000018421184434629392054 0.000011005832986267934895
482.000000 -0.000013752760360534627769 -0.000005974384507995601411 0.000018153050925454612387 0.000017783226950162017900 0.000017527808281504952758 0.000010466798475919853186
484.000000 -0.000013089980092970944788 -0.000005691381420494691159 0.000017277764496979821398 0.000016926267879610004430 0.000016684279920261881069 0.000009960385102727084528
486.000000 -0.000012450838865119382654 -0.000005406962631081463962 0.000016436811030225284823 0.000016102221800952126079 0.000015880232941200234326 0.000009480577000761556224
488.000000 -0.000011841941326503025185 -0.000005142611044255636600 0.000015633887077334864273 0.000015315463515634584427 0.000015096348281547010390 0.000009011886462329084452
490.000000 -0.000011263494728138976258 -0.000004878094323128809769 0.000014892363030605650434 0.000014589170771077151963 0.000014368977320289191322 0.000008575436632374196276
492.000000 -0.000010724379244575995811 -0.000004653694655410748089 0.000014166315520418206185 0.000013878256851870489867 0.000013666497470894418373 0.000008154756469583207386
494.000000 -0.000010202966859223247957 -0.000004433913804038382992 0.000013463331376053529746 0.000013189848001706424067 0.000012996675909767453538 0.000007757365297737726150
496.000000 -0.000009702540087210619087 -0.000004208350382896177822 0.000012810550646270303158 0.000012550541565588064751 0.000012370399399635877174 0.000007382900018310580652
498.000000 -0.000009240831851087881495 -0.000004007207049645004568 0.000012198932937971212790 0.000011951141256806647648 0.000011783941714687880823 0.000007032050630699743059
500.000000 -0.000008798747712652367408 -0.000003826193801268561705 0.000011583281149564184754 0.000011348340363191599097 0.000011217663608115833763 0.000006695801056476728707
502.000000 -0.000008375512498505105992 -0.000003644036700468488740 0.000011025446125901639319 0.000010801797514672017040 0.000010670335536885425863 0.000006369572984958660254
504.000000 -0.000007980554422659754310 -0.000003485334982345374675 0.000010494351027829198000 0.000010281635671244134658 0.000010154478378725961506 0.000006062241723219885521
506.000000 -0.000007590164544722491898 -0.000003312704462737888461 0.000009974345490410394240 0.000009772437470447341390 0.000009657640904630213495 0.000005764874654643514037
508.000000 -0.000007229615943345171976 -0.000003157984127284900168 0.000009503430840356333627 0.000009311289893043856589 0.000009207841866913598933 0.000005494427951779084525
510.000000 -0.000006884495675473289387 -0.000003009953967166154374 0.000009042392054927109960 0.000008859887095821370349 0.000008769414717934547729 0.000005231303469212850045
512.000000 -0.000006554637566539576081 -0.000002869286189268299359 0.000008601939911188428626 0.000008428581066881776334 0.000008344349209629744413 0.000004975280749405739770
514.000000 -0.000006236765478003696104 -0.000002729810032794488602 0.000008191176903843292654 0.000008025662667489759825 0.000007936992053172075019 0.000004732297875709543841
516.000000 -0.000005933914612397671926 -0.000002587850655458518068 0.000007815488929637645488 0.000007657569146741508581 0.000007556272720417489105 0.000004507314482400318615
518.000000 -0.000005669906177921446045 -0.000002485286805869693665 0.000007447375406165098565 0.000007297010178597997686 0.000007209729268707464422 0.000004299454280463598328
518.780000 -0.000018489298397257067044 -0.000020150346936230112611 -0.000009526971142164665895 -0.000009409176982574411359 -0.000001464122583084869059 -0.000003447999363324626836
520.000000 -0.000005400041252696554263 -0.000002357384554118647034 0.000007114972167208661488 0.000006971395066852913439 0.000006889314024312476694 0.000004105148661395423888
522.000000 -0.000005143132583752085712 -0.000002249006151720626363 0.000006768960442433521819 0.000006632345043478294126 0.000006565722158947339223 0.000003913592957310395084
524.000000 -0.000004887175334191210144 -0.000002136660206124647333 0.000006439446039318837130 0.000006309873765513395934 0.000006241748903939328134 0.000003721278973151879480
526.000000 -0.000004663686341406115269 -0.000002058421794690865616 0.000006112047271910200582 0.000005989292417397168142 0.000005941246399729796216 0.000003543251505948206984
528.000000 -0.000004433474042485413041 -0.000001934582199118704877 0.000005836612601605311366 0.000005719221076503855036 0.000005667268549383618768 0.000003378888343989388819
530.000000 -0.000004218018625084202072 -0.000001831295312545317570 0.000005560903246868814090 0.000005448973224701699150 0.000005394893082344878682 0.000003215067588872267423
532.000000 -0.000004020489618964613100 -0.000001749645694528570897 0.000005301553753355490031 0.000005194788479532261991 0.000005143255680303609337 0.000003063699836647551849
534.000000 -0.000003836251451134603044 -0.000001677313846759369965 0.000005039778414814681641 0.000004938174017785160241 0.000004900543613163296567 0.000002920473831447582664
536.000000 -0.000003647896140131525815 -0.000001589285836697715063 0.000004822576076138351220 0.000004725763207146221365 0.000004670674008082141623 0.000002780285207735315761
538.000000 -0.000003478987833031868212 -0.000001514415618427262017 0.000004611168320488430813 0.000004518902325020468461 0.000004456765253387568709 0.000002648592317317037142
538.720000 -0.000003421604839869859496 -0.000001488160248635986647 0.000004531783629525394395 0.000004440955605299947200 0.000004383451218817852991 0.000002605237329948814385
