0.000000 -0.000000000000000000000000 -0.000000000000000000000000 -0.000000000000000000000000 -0.000000000000000000000000 -0.000000000000000000000000 -0.000000000000000000000000
2.000000 0.000061874149098355092549 -0.000270356838997301020776 -0.001058346915745827414648 -0.002117209727550736341611 -0.000652718212157530415680 -0.000369506674890974237766
4.000000 0.000602514104868956791930 -0.000033667271727989557225 -0.002129712681656556038517 -0.003972600602684433351852 -0.000847705696310399343246 -0.000434150197234748724644
6.000000 0.001523539913119870484182 0.000599575483176693403188 -0.002454117694883157108771 -0.005185755419188658836560 -0.001073293752349919897085 -0.000579101347544968875387
8.000000 0.002984984399088190434174 0.001537446556008922318379 -0.002888659460570397376905 -0.007223849668088461357940 -0.001523275465800804761435 -0.000864447272799733390687
10.000000 0.005258359069540340276216 0.003169912071364157195308 -0.003719823205592413025572 -0.010678126303967777621651 -0.002246364871387035271055 -0.001285241856414046134408
12.000000 0.007598901759671256375683 0.004690200032684308656394 -0.005324406998552575973060 -0.015232612641034069117518 -0.003069176068009105140533 -0.001751319166599918418850
14.000000 0.010613419670662007504580 0.006468949583358587010484 -0.008014063850056889551365 -0.021916592278979588059862 -0.004391502289622176320727 -0.002547519426931209828024
16.000000 0.014268066445938748856848 0.008790337989593119752407 -0.011227262108978104324097 -0.030111227722060818212668 -0.006087566568601917270376 -0.003595662544998094733995
18.000000 0.018391409284713524513455 0.011297717110274088994637 -0.014841833342521563651739 -0.038852403790249630255449 -0.007981522223352372630290 -0.004807031346347636138749
20.000000 0.022567672112309068721547 0.013211436309026731300564 -0.018987074414436446584409 -0.047802344389649684130994 -0.009853197024796821884562 -0.005993224205707521450026
22.000000 0.026444238898370935053617 0.014967061328812789749998 -0.022998033305832703970806 -0.055353732085201154400345 -0.011563724370182026576770 -0.007145982965785154482352
24.000000 0.029998498937051663870701 0.015834542609948092095618 -0.027124450727305533109801 -0.062237245605488121513726 -0.013321692856638998880836 -0.008370100331566418527807
26.000000 0.033534697354416984071968 0.016384849937701957689473 -0.030600302369064889124184 -0.067498119861643571248955 -0.014966792409789531764774 -0.009616587417580388028049
28.000000 0.037246833205437437919194 0.017436672573115739176552 -0.032741562993254161306744 -0.071310695718874272941434 -0.016365698744182845258965 -0.010739735495151699409822
30.000000 0.040702787997966671795780 0.017661460798497650298566 -0.035820728726209331849173 -0.075502242280917078454117 -0.018036920469013513479428 -0.012110426055636355421874
32.000000 0.044371290231919970070695 0.018552747554098511506560 -0.038381457263770055177154 -0.079135517309720640466431 -0.019481595890929574027561 -0.013314774248003789086647
34.000000 0.047800710972152729572038 0.018452408730843205403316 -0.041092340515252220867204 -0.082526556503589226787554 -0.021178269772643330826067 -0.014750231533112039689071
36.000000 0.051306713545986100399876 0.018510024171216145350005 -0.044021008615528954555085 -0.085841485815215723409466 -0.022920875434896150618647 -0.016227066942266551302643
38.000000 0.054787349208607283301831 0.018561419287944910111454 -0.046537213456095655184086 -0.088517498914537862120255 -0.024606041246925416249303 -0.017685570546225819199559
40.000000 0.057868412529925153386934 0.018610241305219130808490 -0.048965524801378237929050 -0.090876323060096450556777 -0.026553839525811119559595 -0.019426281031596551868157
42.000000 0.061140714239308238675541 0.019045879718082261988776 -0.050854121073948217734984 -0.092723476675557345294543 -0.028758998509617956368389 -0.021439631452479554485357
44.000000 0.063562492306759005300520 0.019150869125941508142041 -0.053021373557295796430378 -0.094461821161673426017202 -0.030755733185518403099978 -0.023303856365298844521838
46.000000 0.065393099444447974621930 0.018751292985837539339933 -0.055339340728197752850015 -0.096344250083978025256393 -0.033006592163705557319009 -0.025354865740345299690572
48.000000 0.067412661150251837471892 0.018934843686214192920447 -0.057591923581181918290195 -0.098222948140755633739118 -0.035338284443632655973389 -0.027470378839416883381963
50.000000 0.069418176957194918652583 0.018907197136731668241083 -0.059964831511989634404980 -0.099949720494538707438181 -0.037580034847813720277898 -0.029506794672560451159304
52.000000 0.070675356926773166832412 0.019126575225603872215663 -0.061399199993276143416665 -0.100753471527721433220748 -0.039431445570730111471747 -0.031233623552836285719447
54.000000 0.071319865592015418975791 0.018728193100832450646021 -0.063999960478764675309016 -0.102435887341761830415798 -0.041328929337127590093459 -0.032902889145164052053794
56.000000 0.072022200599974911527923 0.018728343639849293067456 -0.065682424276590808953635 -0.103186388251630858925445 -0.042523695174684190967174 -0.033944467899401239985302
58.000000 0.073257087748934260340583 0.018501287394553537352104 -0.068798987448134174549352 -0.105140986771204120175938 -0.043786652930284962470520 -0.034923106840822573659899
60.000000 0.075135689977326419741743 0.018716234583140745756369 -0.070471098703778919936092 -0.105775468400982855521342 -0.044591275274363448288817 -0.035573097077584568681541
62.000000 0.076125837094600995458293 0.017920100617137613152607 -0.072490812592465703190214 -0.105743398524649839798073 -0.045136528365371061943812 -0.036037800731546679178230
64.000000 0.077026176024890369298248 0.017749739279855715479162 -0.071973899619992121046153 -0.103096268241923194608489 -0.044812084640165332494188 -0.035920230279561336794725
66.000000 0.076602063723802099604043 0.016337824994792665700416 -0.072020711282156008037347 -0.100185112141660120910203 -0.044023245293875974681885 -0.035410984268393626284155
68.000000 0.075919283682685356762221 0.015475402811495017965648 -0.070277604756927222751095 -0.095970382114052454891606 -0.042988111495693544228391 -0.034745955756634416822237
70.000000 0.075644674143903370411302 0.014633677180633124226272 -0.068306386500240956483054 -0.091337091104985251854842 -0.041811861368202564437357 -0.033978687369837640153136
72.000000 0.075133543645082290218795 0.013910780948541732332524 -0.065830611562153348859106 -0.086590004636101738921816 -0.040616198664255587225114 -0.033173536186285719484790
74.000000 0.072826531926266396821390 0.012246794650289959116574 -0.064355861901430097549159 -0.082655566211779038510166 -0.039337802810877800507861 -0.032231787053458110792192
76.000000 0.071220875841401673489450 0.010902173822470441824639 -0.063484531130951316058031 -0.079460646871178486350118 -0.038212642115365430539597 -0.031385474056430308353871
78.000000 0.068663487156762445517977 0.009515541899826304370058 -0.061824200117456262759674 -0.075706810137568761320814 -0.036806363543676480498679 -0.030301887585507638472881
80.000000 0.065918861794779820550971 0.007742112850075526242488 -0.060521263868409544417482 -0.072310041777679717744931 -0.035480857613288341312341 -0.029262568234983622056378
82.000000 0.062969125994944571966805 0.006119928597052300134340 -0.059113240415991523402095 -0.068765172733255566783761 -0.033627121132983578410958 -0.027794175958170321688590
84.000000 0.059856317486401459937451 0.004418798636867083198809 -0.057746047799611142925524 -0.065314934192401363777236 -0.031638203887520637003217 -0.026199555594591951435124
86.000000 0.055600318741380473641644 0.002401613610224357080875 -0.055734881588633509996722 -0.060966305796537938188617 -0.028743212232792962612660 -0.023795204677101257362271
88.000000 0.051396695630395637655052 0.000828449083533743056013 -0.053390109943396830971540 -0.056621572080458572318040 -0.026068864794778576904344 -0.021597371692707048596027
90.000000 0.046785456744381510862940 -0.000923898505839414554454 -0.051364555814239772069119 -0.052582041657932621081528 -0.023593213938807432866751 -0.019574665926511667507492
92.000000 0.043685356795238675098325 -0.000503691997256998022503 -0.046724132842178238422814 -0.047227119078180959665936 -0.021283503619812637469577 -0.017777446594454036910005
94.000000 0.041749402165156442034988 0.001215764415368333949477 -0.041054023963329980273507 -0.041617924282003296299060 -0.019238956978483837123584 -0.016234045155572199986560
96.000000 0.040633257914813647460051 0.003678602922268590924570 -0.035021152132330882200684 -0.036014585247616172358764 -0.017308105118987643367134 -0.014791983445402574065541
98.000000 0.040438188862380965160614 0.007342844020883771555264 -0.026522443121958561018658 -0.028728843692200346088272 -0.015357994792831829514168 -0.013416626478707333394724
100.000000 0.038955421161383049777349 0.010542494037059360265096 -0.018461218744675739200645 -0.021819142107837651706204 -0.013299307461012311454285 -0.011883144131875630206130
102.000000 0.035766673340348477394546 0.011447217447401104861715 -0.013754822851041275527662 -0.017349917144200682067590 -0.011608547571909617196484 -0.010533822855353900532771
104.000000 0.032612283858067289687988 0.011461927608663166969216 -0.010682574577002848514873 -0.014117596297723515597067 -0.010146863872012542792667 -0.009323247089250724650711
106.000000 0.029834227381983300514401 0.010942720612694925574893 -0.008388661500273888668722 -0.011541324539617762306998 -0.008929956763504574845935 -0.008301755829688041432579
108.000000 0.027575776994538475639374 0.010240594496086698195203 -0.006838739315063516871485 -0.009638814337244016455797 -0.007969161932968964884294 -0.007485301708290458162776
110.000000 0.025216278912734629152892 0.009330926631104820984097 -0.005954953247259849556661 -0.008311206631939625430472 -0.007111386563955588747954 -0.006718312645906212784985
112.000000 0.022584680679474354592084 0.008209677411610468225622 -0.005185416067328508203660 -0.007069425596836586937755 -0.006286878159794199658061 -0.005978350093794701503036
114.000000 0.019436649173036391058389 0.006723949875740552889480 -0.004520810265558183188572 -0.005847462889033584049203 -0.005423705111482709367854 -0.005197888127602646665681
116.000000 0.016728284736843696683950 0.005628838229376305866969 -0.003694957405920470863009 -0.004598722048369178853899 -0.004610720355374697994322 -0.004466897661327935177555
118.000000 0.013985457319533513981247 0.004504485896690408469611 -0.002899851978642961972121 -0.003373499725453478394893 -0.003776960844088930041584 -0.003711235253328048436933
120.000000 0.011350666961454465228587 0.003589679140108893370953 -0.001972578422800038474433 -0.002082368286742083875879 -0.002934866008902446005147 -0.002948044461598112089135
122.000000 0.009006884386597194952495 0.002863797523715060425187 -0.001081158154382797593682 -0.000886195740486026548900 -0.002146756766030676055745 -0.002229570145218612471638
124.000000 0.006771244093111769210558 0.002267627731793923993170 -0.000173475252080579393993 0.000290357171885546525274 -0.001374259773279174054114 -0.001523263430180406882014
126.000000 0.004703467782299368751819 0.001658665174120980793926 0.000479136214553124847523 0.001200129034190243167493 -0.000717935296516176687034 -0.000914857450923646010367
128.000000 0.002949722679592829167883 0.001141605879249421280977 0.001082911745069283599927 0.002014636901269238698081 -0.000163334399815775598453 -0.000404942641668825211235
130.000000 0.001321256730213865105208 0.000606434431868597945657 0.001538635874054250637574 0.002675968511261395555573 0.000318237944902498228091 0.000042569371612043747715
132.000000 0.000010492674350862087957 0.000212559560460926199590 0.001939067665013034054075 0.003234931372956373167582 0.000718351477781866906702 0.000413694715413804410195
134.000000 -0.001036779000901618666072 -0.000107770889294141845459 0.002283837701551326947180 0.003709034806985927676393 0.001043014836463454150794 0.000713207000837689500047
136.000000 -0.001932249029222367180114 -0.000396980894611392355099 0.002536506370841313823955 0.004074471008471685674890 0.001302482077547497058348 0.000953441606865472988941
138.000000 -0.002491136563298938441657 -0.000551643931377429272422 0.002752106676728147734851 0.004361607442675746737493 0.001486109166184694041837 0.001121058744353726306306
140.000000 -0.003028802901493888363044 -0.000756849894832020307286 0.002866310481048784091634 0.004549731266802428675255 0.001617080370998166122254 0.001241038738261224369172
142.000000 -0.003155113812695115385609 -0.000789253661013446196001 0.002947386802110783365211 0.004656913328571982493842 0.001667716253430146953682 0.001283830457139240651537
144.000000 -0.003263354414813100096149 -0.000819333592442233289363 0.003015754167561654919966 0.004750890296627951168984 0.001711891327175559538235 0.001321130852503261780828
146.000000 -0.003374671195272604604098 -0.000851653127653756122396 0.003079145882607501119588 0.004840668201464493752839 0.001755230268409369151147 0.001358007471915909179089
148.000000 -0.003483235792964940995969 -0.000884017160927086289440 0.003138042976291482294426 0.004926090333431362537631 0.001796656531340374684386 0.001393323587940290984519
150.000000 -0.003586630907553991966935 -0.000915419769570114446461 0.003192877128074787101975 0.005007336082905115316743 0.001835785040339824947600 0.001426640845368547152322
152.000000 -0.003683673669816919099551 -0.000945291656431611012658 0.003244133859757468082985 0.005084782255969175039645 0.001872512287684081205841 0.001457802291053326418022
154.000000 -0.003773936698296129124003 -0.000973354302016518299102 0.003292323407469983746754 0.005158924243931301868715 0.001906905627225714697573 0.001486822824038949763040
156.000000 -0.003857526945098178113719 -0.000999534663872579578342 0.003337965992100833806377 0.005230332364633106558005 0.001939151495775038062594 0.001513838121334971789991
158.000000 -0.003934929871005196123923 -0.001023914114113672838707 0.003381575338998491116194 0.005299617779264348751966 0.001969512591669564556540 0.001539062609350612181522
160.000000 -0.004006863009292597338495 -0.001046670936513187074104 0.003423645434925513906382 0.005367399578410697938424 0.001998293986281659152110 0.001562756059946333268146
162.000000 -0.004074161173472264953210 -0.001068035319398281859232 0.003464638675396933611972 0.005434280991647458258775 0.002025815881627860814279 0.001585196802836007397286
164.000000 -0.004137700041066513269306 -0.001088266433493010210826 0.003504978548879864909404 0.005500832442224976026601 0.002052393404492272588335 0.001606661699193589424445
166.000000 -0.004198333688975401309373 -0.001107623142542732462903 0.003545050462476111337307 0.005567585789065868095982 0.002078325199471260480155 0.001627414374247022682204
168.000000 -0.004256864252837717736699 -0.001126353675397536802452 0.003585200114070467673766 0.005635028587536026166427 0.002103886353607542676614 0.001647698165020889272264
170.000000 -0.004314020025627734317153 -0.001144686859704255712036 0.003625736971398900616859 0.005703605645742609170368 0.002129325173352505581881 0.001667732379571511486596
172.000000 -0.004370455609144985840986 -0.001162830992264635588535 0.003666934845040682993539 0.005773720605658616555900 0.002154863526086530159387 0.001687712410990039159711
174.000000 -0.004426747978150714912804 -0.001180972503518423538313 0.003709038760535861723594 0.005845742676043329082158 0.002180698589777783913402 0.001707810965616407723744
176.000000 -0.004483402507544849945054 -0.001199272923728545835881 0.003752274516357383387505 0.005920015702717123899645 0.002207006346787639908952 0.001728180838410062029886
178.000000 -0.004540870304493176135008 -0.001217884185280654991620 0.003796838738811282847746 0.005996853999667485848879 0.002233942942871111527608 0.001748956533758462420294
180.000000 -0.004599543885884301019917 -0.001236934946256414450880 0.003842919509770005050131 0.006076558996039638921305 0.002261649610232368667190 0.001770258151496603704622
182.000000 -0.004659775621157781141934 -0.001256542983082730054190 0.003890693552636400806555 0.006159421301920566665933 0.002290256245463952178287 0.001792194614664650983635
184.000000 -0.004721883034318821725783 -0.001276817790988652150802 0.003940326292729523852132 0.006245721467291344593253 0.002319881629106830198128 0.001814864307166597946763
186.000000 -0.004786158225781706257451 -0.001297860198923507296306 0.003991979860341062814888 0.006335739805917891404041 0.002350639198028116327865 0.001838359706859850730212
188.000000 -0.004852873611349538436610 -0.001319766260737745625087 0.004045814633674053341361 0.006429758871019594819451 0.002382637942915491729295 0.001862768355421075055708
190.000000 -0.004922289699294547446473 -0.001342628239069992976060 0.004101991750772025421834 0.006528065573338736292397 0.002415983838439925146524 0.001888174307362105877953
192.000000 -0.004994657009264041359897 -0.001366535635011532391625 0.004160677588299852187881 0.006630959172847446930765 0.002450783442031494521740 0.001914660880290748384489
194.000000 -0.005070228257509006714043 -0.001391582892056770180689 0.004222037705088418739485 0.006738747107261792990140 0.002487143765304441166142 0.001942311008198710107694
196.000000 -0.005149253903048690850230 -0.001417861615545643830943 0.004286249749469478453889 0.006851755894947074952694 0.002525175178872963045046 0.001971209388281152264516
198.000000 -0.005231991856991810053990 -0.001445469763217854591505 0.004353496103340650374980 0.006970327510761966695318 0.002564991015754692228051 0.002001442334471573679389
200.000000 -0.005318709200999474466520 -0.001474507192799568962641 0.004423971364212459303489 0.007094826792182186425695 0.002606710998267103025078 0.002033100573811265354696
202.000000 -0.005409681722085807331624 -0.001505079038561890755407 0.004497880081202207391833 0.007225640252679839913019 0.002650460054831248364604 0.002066278293986175199071
204.000000 -0.005505201805319616045753 -0.001537298372170612346943 0.004575439767062160038857 0.007363181474456932835981 0.002696370461568894667109 0.002101074825055914731264
206.000000 -0.005605578271934399427201 -0.001571283521512696883943 0.004656884344217037709213 0.007507893712190202503698 0.002744583078177841896361 0.002137595667849590246740
208.000000 -0.005711139393245097568841 -0.001607162926514666724531 0.004742459630132471459785 0.007660249010272025468882 0.002795247582480650354320 0.002175952791885398928534
210.000000 -0.005822234362539578135520 -0.001645073149614356862458 0.004832432474171025581222 0.007820756582507181267627 0.002848524360364633814524 0.002216265903447470729526
212.000000 -0.005939236958633336421753 -0.001685160671385471957071 0.004927085555982881580339 0.007989960457767161794429 0.002904584528321708415677 0.002258662635101460827713
214.000000 -0.006062547510527902666633 -0.001727582863842346905595 0.005026723473122210981978 0.008168444780732871113305 0.002963611021881303302788 0.002303279328247656142920
216.000000 -0.006192593938262930600147 -0.001772508245267414780932 0.005131671985066012242616 0.008356835826245571918758 0.003025800481445600331049 0.002350262543390715767877
218.000000 -0.006329834583144003899713 -0.001820117340349606573080 0.005242280371303499435232 0.008555805176948278606419 0.003091363364695943766886 0.002399769121459888535086
220.000000 -0.006474762880784035341819 -0.001870606599576220404821 0.005358921703183390852776 0.008766072232084807722141 0.003160525383378424892772 0.002451967322875661312032
222.000000 -0.006627905385527252390965 -0.001924183557147588147576 0.005481996745315726934922 0.008988407245189728236867 0.003233528242862921450035 0.002507037396588703438011
224.000000 -0.006789826282478867228165 -0.001981071086821800230487 0.005611934388806460831389 0.009223633080049080390506 0.003310630308682819492733 0.002565172116488417981828
226.000000 -0.006961131377334914792365 -0.002041509307757006889961 0.005749191483968578604558 0.009472627363713272130585 0.003392108871024486493884 0.002626578745639009809798
228.000000 -0.007142465314300959142169 -0.002105751738083796661960 0.005894256614905672014837 0.009736324174307366477454 0.003478259564336659472733 0.002691478488654322921009
230.000000 -0.007334516345094730695175 -0.002174068460849891588904 0.006047650139690349466171 0.010015716595822876308630 0.003569397837790516843370 0.002760107705403489018053
232.000000 -0.007538020120924251825378 -0.002246749832308233326555 0.006209922397403077991285 0.010311856088600452815984 0.003665860382445579063876 0.002832719289221514828714
234.000000 -0.007753762099237121972750 -0.002324103603638252336927 0.006381659801318008071180 0.010625858359862190571921 0.003768005868281353552829 0.002909583146561485911957
236.000000 -0.007982580498067203336743 -0.002406461364003893363406 0.006563480649118016291288 0.010958904143113051138370 0.003876216228134453638948 0.002990987225652342370447
238.000000 -0.008225372561819051242527 -0.002494179580188226903054 0.006756040443845863323336 0.011312248779133875914438 0.003990899784915968168120 0.003077239833784787149257
240.000000 -0.008483105416270845383631 -0.002587648767945579207639 0.006960032120173382207129 0.011687232037380033619622 0.004112493566519479816501 0.003168671270617824230892
242.000000 -0.008756828434616377096478 -0.002687302629879829204279 0.007176191660832006470605 0.012085296790517273748944 0.004241467453067601298122 0.003265636470106003316771
244.000000 -0.009047686212288214013810 -0.002793627521771848299520 0.007405307679209344011440 0.012508018467343283083859 0.004378331013449203619470 0.003368519358469208684059
246.000000 -0.009356950931881154870373 -0.002907185576646585580679 0.007648228449160887273961 0.012957140526128937962902 0.004523641693837325387928 0.003477738307728596260648
248.000000 -0.009686039464041701352315 -0.003028626329965339314398 0.007905886649686643882773 0.013434631658780430210620 0.004678016049409857400609 0.003593752731990681580782
250.000000 -0.010036553371304181986323 -0.003158713227699031129980 0.008179320100612799682160 0.013942746178238077728317 0.004842141910244268307451 0.003717070629563251193267
252.000000 -0.010410309641913157580051 -0.003298339912388054823156 0.008469707346040633577644 0.014484098985142048604535 0.005016793407902322456116 0.003848257848745718998767
254.000000 -0.010809374209408997152826 -0.003448547276136549114001 0.008778398591109091986251 0.015061732958704556264995 0.005202845220838419812437 0.003987947169306378311648
256.000000 -0.011236085317848183359746 -0.003610526347599295020341 0.009106957030767189736897 0.015679177832412068832602 0.005401284108970895794788 0.004136845742584328335101
258.000000 -0.011693062308872344962074 -0.003785608436471072160701 0.009457189425700224597038 0.016340477448752357275685 0.005613216623850210071356 0.004295741037755623770167
260.000000 -0.012183187544454524703363 -0.003975228607554626321374 0.009831170457456536379559 0.017050169698052064504168 0.005839867371712751178969 0.004465501441268197521661
262.000000 -0.012709562053036844650467 -0.004180867911193518644819 0.010231241230351451748648 0.017813193813352012212503 0.006082565671957701133876 0.004647070936539272022203
264.000000 -0.013275428687808730685016 -0.004403972644025299157389 0.010659970714459100771254 0.018634711235737341089580 0.006342718034054574058334 0.004841456320932412647762
266.000000 -0.013884060960210270821436 -0.004645849798555831342006 0.011120082635045920246841 0.019519842982965548289220 0.006621768123333319350232 0.005049707966429250495521
268.000000 -0.014538643617480626057947 -0.004907570393353521617796 0.011614332811291630878636 0.020473343463340860221011 0.006921147381959676450625 0.005272895788562746016703
270.000000 -0.015242156270498682241188 -0.005189887096898431785574 0.012145356029151942525712 0.021499255821732326382500 0.007242226738794514326325 0.005512086440721921873354
272.000000 -0.015997298066442310060520 -0.005493210449236387779570 0.012715497174527554818946 0.022600632840186693495177 0.007586280842530121124034 0.005768326776351312065727
274.000000 -0.016806475006991606485629 -0.005817653349950453051109 0.013326676056090159400158 0.023779412388237993608575 0.007954480466088084678056 0.006042642044891294653142
276.000000 -0.017671874685736360666155 -0.006163159365644764985104 0.013980313929033353140263 0.025036508165239189371842 0.008347918740980753496417 0.006336050978010830496412
278.000000 -0.018595621873238366711378 -0.006529706598609338018269 0.014677352338470702267093 0.026372146936386259286067 0.008767672942883162831573 0.006649597918931704314260
280.000000 -0.019580027308820503739728 -0.006917579307990430123598 0.015418378212325235462887 0.027786443307996407103833 0.009214901795132669076738 0.006984403176224915008041
282.000000 -0.020627904255985003018070 -0.007327681718848498039487 0.016203847119099515361462 0.029280169303009397074877 0.009690968493070590758509 0.007341725860057634819866
284.000000 -0.021742956957635759668301 -0.007761882776437138004022 0.017034395075813411890575 0.030855676554642847558840 0.010197586767297640159002 0.007723040015126104822218
286.000000 -0.022930232747349635347156 -0.008223377380571935540976 0.017911226622896226495785 0.032517937184021218632868 0.010736984931745366389499 0.008130120580358977250279
288.000000 -0.024196588321231136953227 -0.008717006871724820166181 0.018836608685886827713185 0.034275685420018242588469 0.011312083212227696041308 0.008565135933385373961935
290.000000 -0.025551029196208420446457 -0.009249388681197696221448 0.019814523950817012482029 0.036142560821788315139624 0.011926655186690313797948 0.009030725543486443213093
292.000000 -0.027004486656209168021769 -0.009828443839371486454026 0.020851600341130465537942 0.038137914391826989446432 0.012585390161538541342612 0.009530008652018386733351
294.000000 -0.028568149264738811748954 -0.010461504572193965761917 0.021958327287434201147143 0.040286183686406400183966 0.013293599479842032121124 0.010066364779325921025022
296.000000 -0.030249215060286348266683 -0.011151074377954395613899 0.023149768406634890077767 0.042612121642059942738801 0.014056000128097878576483 0.010642663793542943284631
298.000000 -0.032044186342329361583126 -0.011888659970378918917522 0.024443162020467555650693 0.045127863112778332510544 0.014873923315278697945829 0.011259632307313024307538
300.000000 -0.033933004934933466700819 -0.012650017563105497506171 0.025849773910834056983576 0.047812644091506345533915 0.015741756487752844168027 0.011913956437733306051308
302.000000 -0.035879144059647961884085 -0.013396377969887565337337 0.027363940785213959616673 0.050598632154791774173663 0.016646078892346000827063 0.012598176977799397865954
304.000000 -0.037837375038407235205984 -0.014083119425840777416692 0.028956820922501850384956 0.053377863079673716628637 0.017569680069313697856614 0.013303414835346678499195
306.000000 -0.039764886604142839210407 -0.014672374939183448205871 0.030579050977626774654450 0.056027536361298847789048 0.018496906833480257492663 0.014022359748389626177278
308.000000 -0.041629296555606640217739 -0.015142649704942714658507 0.032172530155011237751328 0.058440322775871141047777 0.019416000261318979575043 0.014749794732989535486767
310.000000 -0.043409709182078703992858 -0.015489488454097855713032 0.033685723393332693553770 0.060545193857836979156595 0.020318710988909589876261 0.015481532941632075370264
312.000000 -0.045092022352886597380550 -0.015718484551902285606406 0.035083340102891338863067 0.062309994359895030935359 0.021199337282055800979474 0.016213719554424129570824
314.000000 -0.046663076355897968594544 -0.015838136063329261160604 0.036347781247124719139485 0.063731673449612863402436 0.022053913031418102136394 0.016942654110382118076705
316.000000 -0.048107368258282261208603 -0.015857565443767485113824 0.037475324878970789344024 0.064824610259193171657444 0.022879253515883615777149 0.017664471445708554431242
318.000000 -0.049407283507882072959294 -0.015787627273061401872445 0.038470352842893906775146 0.065611737500412131707250 0.023671862311611297641223 0.018374572585485138276340
320.000000 -0.050545740650634891910631 -0.015641479943814644293365 0.039340176511503524570124 0.066119053266812333191638 0.024426901063664477331550 0.019066887968712611239885
322.000000 -0.051508704848268589693294 -0.015433268933900947880722 0.040091386330763909007224 0.066372116972268302426130 0.025137015330241971322600 0.019732802658100418585763
324.000000 -0.052285313721335921477440 -0.015175142114548761940185 0.040728743414768328601205 0.066394131591936356162620 0.025791212974939393964835 0.020360057187873325384997
326.000000 -0.052866681102362304833786 -0.014874332907898789660206 0.041256161539278572714107 0.066205320086476324159541 0.026374397734270655507816 0.020932360980834136682249
328.000000 -0.053246173465914939382237 -0.014532913885935298814456 0.041677299299708404911602 0.065822279380980217022845 0.026867939810802255601319 0.021430177920311370420858
330.000000 -0.053421254225994425912649 -0.014150286218340754965106 0.041994427825656953368050 0.065256814001569601879638 0.027251513156929058068201 0.021832757876878453040526
332.000000 -0.053394709890160221843480 -0.013726159728359615605497 0.042206449578147543777451 0.064514994182657783849955 0.027505998238409882367117 0.022121072287407811396420
334.000000 -0.053174792351426074243914 -0.013262988412848666572308 0.042306565965309822496820 0.063596171894069200569710 0.027616551558732264914919 0.022280974903067296555292
336.000000 -0.052774338130920195322204 -0.012767113622168998685047 0.042279999430870414400818 0.062491355691727548671288 0.027574314810594861141491 0.022305250160274837228913
338.000000 -0.052206807741104657716313 -0.012246756762057574297042 0.042103788520609565504405 0.061182626234383495622549 0.027375466224178565677327 0.022192902950148630375482
340.000000 -0.051479794191177846718332 -0.011707806754558534867439 0.041751125275132534853118 0.059647552625877835186241 0.027019293298158594818226 0.021946710732564895379726
342.000000 -0.050592604735093901768828 -0.011152057985420901070617 0.041199680299189481158528 0.057870126054941573023882 0.026508744947778689615703 0.021572288306574635696755
344.000000 -0.049540795742914568722259 -0.010578976993576202567104 0.040441228385511188148094 0.055854241963430771578114 0.025853216162220152285478 0.021079185423791696463169
346.000000 -0.048321526902144591730792 -0.009987217414740078708091 0.039487677866081906385975 0.053629886697363113312598 0.025069212843958705444480 0.020481029573672551724606
348.000000 -0.046935405093290007150220 -0.009374556425637177448085 0.038370236022991895119549 0.051247952689790758629140 0.024177130827548673486227 0.019793266322768059140014
350.000000 -0.045387480758598629237976 -0.008739433714733941746533 0.037130312267715771812338 0.048766692116908476328785 0.023196749061196914737382 0.019030289916182430848268
352.000000 -0.043688267650130632735461 -0.008083722544266730425377 0.035805876516497602002342 0.046236126163559480850562 0.022143950963926534863946 0.018203633208726650860587
354.000000 -0.041853352429025852954325 -0.007413451862353026382280 0.034422126657625229384507 0.043688985433772607736014 0.021029808414301180696793 0.017321715665761877600559
356.000000 -0.039903261876200211977217 -0.006738667181324662150410 0.032990178389174423800867 0.041141519947909190035862 0.019862407943166238144528 0.016391316829566713458854
358.000000 -0.037863040891594375303431 -0.006073554881761407051033 0.031509924660663386764003 0.038599360775997688943750 0.018650208342918236925634 0.015420016552880262336589
360.000000 -0.035759720033191340349266 -0.005435629028600679965577 0.029973189313395272315166 0.036062886790150225357898 0.017404460080297320945242 0.014417878300416547832086
362.000000 -0.033620482662933139084149 -0.004845227355563066530542 0.028365543227853964869389 0.033529727370269941932879 0.016139134167508766698473 0.013397309657602848517732
364.000000 -0.031474808341458090921172 -0.004327375541842872277987 0.026666131927254779071523 0.030994835147844627259994 0.014869668499992567262113 0.012372165035415499598215
366.000000 -0.029359194229392635011600 -0.003914176620281105238586 0.024848102761072105026940 0.028450859134809106804065 0.013612307600609260815894 0.011357311558600192286095
368.000000 -0.027317947418497037781471 -0.003641476136326210564370 0.022885388407310608416267 0.025891882392337486895606 0.012383539762725844987634 0.010367927491829298514148
370.000000 -0.025392876106266185076699 -0.003534557162999853435065 0.020769142814343843211899 0.023321903253345183104628 0.011198722038025058292399 0.009417663826256049419694
372.000000 -0.023605253838968581758806 -0.003589628205598723465625 0.018525378636702428958305 0.020763888444943996020031 0.010070562067685476931311 0.008516603107775508330057
374.000000 -0.021944837765022134207227 -0.003766205905957134732198 0.016219561377619214070922 0.018262056645784455893855 0.009008616037172397644772 0.007670586898323580524184
376.000000 -0.020375350661499758153639 -0.003995978678876857363711 0.013945135323513799946449 0.015875348872481157697090 0.008019723268990631287467 0.006882072106166943654959
378.000000 -0.018853816548502152355971 -0.004203510332957633398310 0.011800854382144490908879 0.013663811983489929785529 0.007108480873160653509824 0.006151624257620991013951
380.000000 -0.017350822836415223660023 -0.004328595384189424383203 0.009865731325055332456841 0.011673067181894300481382 0.006277200208023823134462 0.005479004199127199964403
382.000000 -0.015857039085460693933483 -0.004337936225038871787540 0.008184538996223081341874 0.009925520582354420071058 0.005525600747486590288982 0.004863307285811532300335
384.000000 -0.014375451231255274506249 -0.004223203485342723502438 0.006768491236709423507223 0.008421167081215872804445 0.004850460989946783416094 0.004302307490822214475212
386.000000 -0.012913004364295084178127 -0.003994141992709500203762 0.005602926060844943059736 0.007142634301509230912441 0.004245605954646698015909 0.003791968885746567399092
388.000000 -0.011478002533911900104324 -0.003672236106686822734030 0.004655985761762376773376 0.006061151988215798119830 0.003702765942187266796914 0.003326862226886306925927
390.000000 -0.010080783603644866142091 -0.003284917240316701479708 0.003887964505208277819770 0.005143377299877924767324 0.003213232990630372331448 0.002901328085725902398290
392.000000 -0.008734685153409534053015 -0.002860776871949718361959 0.003259594745596226458839 0.004357612093356718480086 0.002769459164453742447409 0.002510624770807906580572
394.000000 -0.007455879856299743244086 -0.002426719334870710512858 0.002736938570217237534643 0.003677372372721636906850 0.002365833203365640645399 0.002151458038288535726257
396.000000 -0.006261215499190007569008 -0.002006038906807396018234 0.002293245548957601343681 0.003082410625723666728476 0.001998619125158301347567 0.001821864627721160936891
398.000000 -0.005165317153026868952914 -0.001616719136490662924593 0.001909393871052528397769 0.002558571951478422028259 0.001665626165829034444066 0.001520926388899282270806
400.000000 -0.004178986961376080291886 -0.001270364197139143939974 0.001573481457224081133880 0.002097164628318759754116 0.001366005998370977249715 0.001248651924616549918623
402.000000 -0.003309526915990133270201 -0.000972707701459274518691 0.001279275098683163927604 0.001693646974130999212707 0.001099991686161767628568 0.001005836312751181042466
404.000000 -0.002561548727398058316468 -0.000725226519272462850051 0.001023878276444157046574 0.001345703929427365325502 0.000868305581180364239105 0.000793611061950962319751
406.000000 -0.001936833973476244927583 -0.000526713303143091626096 0.000805797579269173125556 0.001051653749403239600235 0.000671474249899164433476 0.000612845036742723763695
408.000000 -0.001433084060885668085603 -0.000373849942077237608860 0.000623865404014989030114 0.000809495782845472285592 0.000509257898493756873577 0.000463615492507755077266
410.000000 -0.001042603529590559793133 -0.000261261336856208282921 0.000476645083963662290812 0.000616271301034785582047 0.000380235587164594215741 0.000344822562226464982178
412.000000 -0.000751819422032168902317 -0.000181758057029871944541 0.000361734789557226731060 0.000467455708347585912037 0.000281485263234519406811 0.000253896225115385137331
414.000000 -0.000542603720222485934495 -0.000127365094731728860974 0.000275218424838440502492 0.000356647901201416527364 0.000208586555182002988951 0.000186817219880600716769
416.000000 -0.000395614745723940847231 -0.000090765333974553418775 0.000211965867433491864666 0.000276262723172259426745 0.000156236325686588022662 0.000138708340167705880281
418.000000 -0.000293843414276961760207 -0.000066338652936039573557 0.000166601484548768892513 0.000218881946306556586946 0.000119297255414902098405 0.000104825757364766686025
420.000000 -0.000224102434682571678964 -0.000050182546592885395747 0.000134339504935099079107 0.000178188905133597164879 0.000093486112923536792405 0.000081215626470104932268
422.000000 -0.000176678746790975729590 -0.000039581008631433661207 0.000111477255582991202978 0.000149373185606314884920 0.000075551356298925932578 0.000064874154019932024086
424.000000 -0.000144557116536834319226 -0.000032640626143656555731 0.000095250944043235279005 0.000128881872682109859234 0.000063108177680236795170 0.000053598422148045155619
426.000000 -0.000122729409095728670895 -0.000028046791935298899073 0.000083650951909949465470 0.000114145569572092194042 0.000054428649327515409386 0.000045791976902686622631
428.000000 -0.000107655443328766883913 -0.000024914598404809193448 0.000075204034361929934490 0.000103305957531201370340 0.000048283024434254470235 0.000040319483156204204664
430.000000 -0.000096937158851834000412 -0.000022677094299924219537 0.000068880948473936154971 0.000095075715811172211095 0.000043807266771360152163 0.000036380581629900418498
432.000000 -0.000088989531537601515576 -0.000020982654429808684002 0.000063964886003484256274 0.000088567668465102736817 0.000040415433677442222610 0.000033434614947224556203
434.000000 -0.000082800044110076654984 -0.000019628229525879784131 0.000059969975228527708764 0.000083197397123853099083 0.000037722879770539414514 0.000031126797842078651540
436.000000 -0.000077737778657120624732 -0.000018481080424608241759 0.000056588828828755174927 0.000078585572414395594358 0.000035486511437942430572 0.000029232328583417616541
438.000000 -0.000073407356446541686219 -0.000017476823832492150871 0.000053630592164021336160 0.000074505109007884742257 0.000033555896307917812166 0.000027612216193078788744
440.000000 -0.000069578459348564817687 -0.000016567973493118547243 0.000050967391316308900586 0.000070796256138554652460 0.000031828635536333982358 0.000026173506923537497482
442.000000 -0.000066102886152331918369 -0.000015736124387699094876 0.000048501773626903724223 0.000067347469854481755401 0.000030247071355273151197 0.000024863089284850755343
444.000000 -0.000062883316652055719180 -0.000014947175389694891635 0.000046207905772075690400 0.000064123273112862792518 0.000028779634501524834557 0.000023651503121361569819
446.000000 -0.000059890913632163533050 -0.000014224990936947277934 0.000044033567114523781917 0.000061071862784385695807 0.000027403468538484789446 0.000022518901169271702742
448.000000 -0.000057051146248608289129 -0.000013543345121930376842 0.000041953651844820839866 0.000058155208158155569759 0.000026096121883786133587 0.000021445281070374906570
450.000000 -0.000054379469506672075058 -0.000012903603741782582550 0.000039992133359872508226 0.000055405515620871895416 0.000024862171837420113905 0.000020432238126686497583
452.000000 -0.000051833669801185635543 -0.000012294060877719919578 0.000038111136014762463109 0.000052781935394342300119 0.000023687247384436041465 0.000019467962763782185290
454.000000 -0.000049422233632267831066 -0.000011738094018038043223 0.000036290744597744694830 0.000050264496720624571172 0.000022565599843861818707 0.000018548733043637458015
456.000000 -0.000047120445528468511199 -0.000011223772260259417150 0.000034533196206903998436 0.000047846320357521051139 0.000021491148516904901570 0.000017668987189260859628
458.000000 -0.000044919210652797825667 -0.000010712566690742288656 0.000032876890929933670735 0.000045555946901206363598 0.000020473668487515392329 0.000016834772185511613358
460.000000 -0.000042812790074287246313 -0.000010235596125276633458 0.000031278448079155106822 0.000043354445234758165516 0.000019496047278899180489 0.000016034500678745681736
462.000000 -0.000040816950906533036418 -0.000009781957060613221560 0.000029754945567102610569 0.000041257459193488864866 0.000018569154000742365954 0.000015275183735730154112
464.000000 -0.000038893338401241011183 -0.000009334062819129739229 0.000028310113176046867761 0.000039264595032988433120 0.000017681051603696944523 0.000014546404160785087760
466.000000 -0.000037050361958549334388 -0.000008907850064557269748 0.000026936768367125053705 0.000037366207988160725741 0.000016831805153488499881 0.000013849446055622164126
468.000000 -0.000035291481308458696662 -0.000008485385334091469028 0.000025660330579294469999 0.000035588453969593848930 0.000016028816094392259157 0.000013188915436184062518
470.000000 -0.000033590304419603926990 -0.000008069242316589326927 0.000024424036033840670895 0.000033872342972692459293 0.000015253265585282769375 0.000012551295103877505941
472.000000 -0.000031974358832171213916 -0.000007673967081298574077 0.000023255979962521462843 0.000032245350938289720161 0.000014520725477887216757 0.000011948902722901123187
474.000000 -0.000030432648289176125208 -0.000007301072376710885132 0.000022135881767548951608 0.000030692906767161530208 0.000013827838292694639410 0.000011378942159871194303
476.000000 -0.000028965148089360023880 -0.000006950838352199229568 0.000021054973920559490094 0.000029199345285403617925 0.000013159054674271919222 0.000010830041004259344283
478.000000 -0.000027571062802554109183 -0.000006618524542276914249 0.000020029453204442938422 0.000027781107469238810521 0.000012521786653260216023 0.000010306220183975323444
480.000000 -0.000026236122843789205376 -0.000006294640258041669759 0.000019054349969057959223 0.000026424893001276213590 0.000011913263491199432799 0.000009805985188694425414
482.000000 -0.000024955069197156858762 -0.000005974384507995601411 0.000018153050925454612387 0.000025159231152546533564 0.000011331669890297293432 0.000009325666793017041092
484.000000 -0.000023744818607783723497 -0.000005691381420494691159 0.000017277764496979821398 0.000023955014340980649971 0.000010785270270151098648 0.000008875067167558775739
486.000000 -0.000022582581558003910556 -0.000005406962631081463962 0.000016436811030225284823 0.000022789604525529029346 0.000010265696423931121371 0.000008447479959847973842
488.000000 -0.000021481749300638354721 -0.000005142611044255636600 0.000015633887077334864273 0.000021670397369759605762 0.000009758300307298946487 0.000008029817763636484199
490.000000 -0.000020436767901609001512 -0.000004878094323128809769 0.000014892363030605650434 0.000020632770358181157786 0.000009286937846946712881 0.000007641014600196467392
492.000000 -0.000019451929818519678866 -0.000004653694655410748089 0.000014166315520418206185 0.000019631978304195847889 0.000008832292664524923027 0.000007266652867939277000
494.000000 -0.000018499309536557369629 -0.000004433913804038382992 0.000013463331376053529746 0.000018665646844060043361 0.000008400993016396844025 0.000006912592942220697524
496.000000 -0.000017594263899911405608 -0.000004208350382896177822 0.000012810550646270303158 0.000017766006691573838194 0.000007995752365345809310 0.000006578874092846428439
498.000000 -0.000016759405068938189960 -0.000004007207049645004568 0.000012198932937971212790 0.000016920151678451737554 0.000007616258439524852045 0.000006266259252592527958
500.000000 -0.000015948628648300777820 -0.000003826193801268561705 0.000011583281149564184754 0.000016091586232544681409 0.000007251540435508073422 0.000005966485263144518195
502.000000 -0.000015182507678949185983 -0.000003644036700468488740 0.000011025446125901639319 0.000015314051515429901443 0.000006897707745267474028 0.000005675794047335547066
504.000000 -0.000014468420978673840872 -0.000003485334982345374675 0.000010494351027829198000 0.000014580613783482948033 0.000006564672279581753175 0.000005402096590305860247
506.000000 -0.000013758035210609028401 -0.000003312704462737888461 0.000009974345490410394240 0.000013864684892904003790 0.000006243357976849022032 0.000005137430303465048676
508.000000 -0.000013097889501423757371 -0.000003157984127284900168 0.000009503430840356333627 0.000013215271363067875195 0.000005951519804582457920 0.000004896396321848590567
510.000000 -0.000012477373759414456142 -0.000003009953967166154374 0.000009042392054927109960 0.000012584737936437941812 0.000005667270305248050315 0.000004662076527416797691
512.000000 -0.000011879850731608537762 -0.000002869286189268299359 0.000008601939911188428626 0.000011977906771314604360 0.000005391072174992663326 0.000004434139341455507126
514.000000 -0.000011306670646528652028 -0.000002729810032794488602 0.000008191176903843292654 0.000011399481229985643395 0.000005127348587402126543 0.000004217448067474106825
516.000000 -0.000010750602385884734918 -0.000002587850655458518068 0.000007815488929637645488 0.000010861511050931373882 0.000004882593119332864235 0.000004016734825804254847
518.000000 -0.000010263072235760038658 -0.000002485286805869693665 0.000007447375406165098565 0.000010358451682361385622 0.000004658000716985180391 0.000003831321460139422028
518.780000 -0.000025489998280486069441 -0.000020150346936230112611 -0.000009526971142164665895 -0.000003215477370631853366 -0.000002769770257813683286 -0.000003379838011418642381
520.000000 -0.000009775268587437020620 -0.000002357384554118647034 0.000007114972167208661488 0.000009893051140935035001 0.000004449251253646159083 0.000003658148924078818730
522.000000 -0.000009323278463513044964 -0.000002249006151720626363 0.000006768960442433521819 0.000009423840151171735874 0.000004240892178634966098 0.000003487257441711446837
524.000000 -0.000008849610941928065760 -0.000002136660206124647333 0.000006439446039318837130 0.000008961826282384542528 0.000004032264185505403719 0.000003315928529644338312
526.000000 -0.000008440209084525448859 -0.000002058421794690865616 0.000006112047271910200582 0.000008524182409915258577 0.000003839091196591715246 0.000003157506199294090671
528.000000 -0.000008024646324138490853 -0.000001934582199118704877 0.000005836612601605311366 0.000008126872832048722800 0.000003661747415379256219 0.000003011102445146390731
530.000000 -0.000007629303133629977566 -0.000001831295312545317570 0.000005560903246868814090 0.000007738163884069725789 0.000003484768048012988194 0.000002865093938792764955
532.000000 -0.000007280164393197787372 -0.000001749645694528570897 0.000005301553753355490031 0.000007380404251247100641 0.000003321030720797377015 0.000002730060466057223719
534.000000 -0.000006947170568653041352 -0.000001677313846759369965 0.000005039778414814681641 0.000007027563567485419269 0.000003165091397731980052 0.000002602318655176385787
536.000000 -0.000006611901505428804520 -0.000001589285836697715063 0.000004822576076138351220 0.000006716162262628677880 0.000003014244853331197769 0.000002477427837558355925
538.000000 -0.000006298622295721437671 -0.000001514415618427262017 0.000004611168320488430813 0.000006417091868153839478 0.000002873780930085832370 0.000002360536308341082897
538.720000 -0.000006195284631606143179 -0.000001488160248635986647 0.000004531783629525394395 0.000006306359096392925185 0.000002826533382099833982 0.000002321773312556477050
