0.000000 -0.000000000000000000000000 -0.000000000000000000000000 -0.000000000000000000000000 -0.000000000000000000000000 -0.000000000000000000000000 -0.000000000000000000000000
2.000000 0.000061874149098355092549 -0.000333019149902685524401 -0.001058346915745827414648 -0.002117209727550736341611 -0.001369912996345003936005 -0.000369506674890974237766
4.000000 0.000602514104868956791930 -0.000378343676818695983689 -0.002129712681656556038517 -0.003972600602684433351852 -0.001943080471076352646470 -0.000434150197234748724644
6.000000 0.001523539913119870484182 0.000268169912722379568792 -0.002454117694883157108771 -0.005185755419188658836560 -0.002415206817798124395297 -0.000579101347544968875387
8.000000 0.002984984399088190434174 0.001306752073965550048004 -0.002888659460570397376905 -0.007223849668088461357940 -0.003347275468546156117211 -0.000864447272799733390687
10.000000 0.005258359069540340276216 0.002889464663843093351209 -0.003719823205592413025572 -0.010678126303967777621651 -0.004953882640270400664062 -0.001285241856414046134408
12.000000 0.007598901759671256375683 0.004212907069498124379425 -0.005324406998552575973060 -0.015232612641034069117518 -0.006901837059803777457700 -0.001751319166599918418850
14.000000 0.010613419670662007504580 0.005603335378033961859667 -0.008014063850056889551365 -0.021916592278979588059862 -0.009864153988177191620390 -0.002547519426931209828024
16.000000 0.014268066445938748856848 0.007445499675706042722045 -0.011227262108978104324097 -0.030111227722060818212668 -0.013556460248075538621571 -0.003595662544998094733995
18.000000 0.018391409284713524513455 0.009371313191542636825138 -0.014841833342521563651739 -0.038852403790249630255449 -0.017554432588661329772695 -0.004807031346347636138749
20.000000 0.022567672112309068721547 0.010849366821747651740138 -0.018987074414436446584409 -0.047802344389649684130994 -0.021520371458017988064437 -0.005993224205707521450026
22.000000 0.026444238898370935053617 0.012016267854540676682240 -0.022998033305832703970806 -0.055353732085201154400345 -0.024918113252916877092824 -0.007145982965785154482352
24.000000 0.029998498937051663870701 0.012580443928267081438177 -0.027124450727305533109801 -0.062237245605488121513726 -0.028334087987012316484092 -0.008370100331566418527807
26.000000 0.033534697354416984071968 0.013037548229052257561800 -0.030600302369064889124184 -0.067498119861643571248955 -0.031299246120866118514581 -0.009616587417580388028049
28.000000 0.037246833205437437919194 0.014405931109817946694784 -0.032741562993254161306744 -0.071310695718874272941434 -0.033635440741953827326061 -0.010739735495151699409822
30.000000 0.040702787997966671795780 0.014632057939746451191709 -0.035820728726209331849173 -0.075502242280917078454117 -0.036263609030071919381299 -0.012110426055636355421874
32.000000 0.044371290231919970070695 0.015538444391915604350651 -0.038381457263770055177154 -0.079135517309720640466431 -0.038456948777959354401901 -0.013314774248003789086647
34.000000 0.047800710972152729572038 0.015620093477575376639255 -0.041092340515252220867204 -0.082526556503589226787554 -0.040939274460606522865191 -0.014750231533112039689071
36.000000 0.051306713545986100399876 0.015684969406581095174857 -0.044021008615528954555085 -0.085841485815215723409466 -0.043483118966712371034067 -0.016227066942266551302643
38.000000 0.054787349208607283301831 0.015844973132673717541863 -0.046537213456095655184086 -0.088517498914537862120255 -0.045839810138260599081672 -0.017685570546225819199559
40.000000 0.057868412529925153386934 0.015734165915416886000200 -0.048965524801378237929050 -0.090876323060096450556777 -0.048360382061250484220238 -0.019426281031596551868157
42.000000 0.061140714239308238675541 0.016137688718232571366551 -0.050854121073948217734984 -0.092723476675557345294543 -0.051069986332314527832654 -0.021439631452479554485357
44.000000 0.063562492306759005300520 0.015932474611229600208739 -0.053021373557295796430378 -0.094461821161673426017202 -0.053458405277977183445159 -0.023303856365298844521838
46.000000 0.065393099444447974621930 0.015133604508813758640628 -0.055339340728197752850015 -0.096344250083978025256393 -0.056232626338652419439867 -0.025354865740345299690572
48.000000 0.067412661150251837471892 0.014840507975786423194853 -0.057591923581181918290195 -0.098222948140755633739118 -0.059102484691950465944821 -0.027470378839416883381963
50.000000 0.069418176957194918652583 0.014072429049154722840997 -0.059964831511989634404980 -0.099949720494538707438181 -0.061873487278588754079145 -0.029506794672560451159304
52.000000 0.070675356926773166832412 0.013902296127662147964821 -0.061399199993276143416665 -0.100753471527721433220748 -0.064016017822705426065788 -0.031233623552836285719447
54.000000 0.071319865592015418975791 0.012393982595731640669601 -0.063999960478764675309016 -0.102435887341761830415798 -0.066484210407115995611349 -0.032902889145164052053794
56.000000 0.072022200599974911527923 0.011675738053995524806661 -0.065682424276590808953635 -0.103186388251630858925445 -0.068112568664608783008951 -0.033944467899401239985302
58.000000 0.073257087748934260340583 0.009903140820673568545107 -0.068798987448134174549352 -0.105140986771204120175938 -0.070189737509444349861099 -0.034923106840822573659899
60.000000 0.075135689977326419741743 0.009112627405256883486584 -0.070471098703778919936092 -0.105775468400982855521342 -0.071488922545584143719566 -0.035573097077584568681541
62.000000 0.076125837094600995458293 0.007110464969943384658246 -0.072490812592465703190214 -0.105743398524649839798073 -0.072357287892497609838038 -0.036037800731546679178230
64.000000 0.077026176024890369298248 0.006573959489010324300229 -0.071973899619992121046153 -0.103096268241923194608489 -0.071554306064995840119813 -0.035920230279561336794725
66.000000 0.076602063723802099604043 0.004462498025235480877959 -0.072020711282156008037347 -0.100185112141660120910203 -0.070085296906534713667902 -0.035410984268393626284155
68.000000 0.075919283682685356762221 0.003560233669506327434939 -0.070277604756927222751095 -0.095970382114052454891606 -0.068039313430626552348102 -0.034745955756634416822237
70.000000 0.075644674143903370411302 0.002457215255867059751360 -0.068306386500240956483054 -0.091337091104985251854842 -0.065715496233585884988671 -0.033978687369837640153136
72.000000 0.075133543645082290218795 0.001673264297172359898330 -0.065830611562153348859106 -0.086590004636101738921816 -0.063380092642463720098434 -0.033173536186285719484790
74.000000 0.072826531926266396821390 -0.000496100989547162496765 -0.064355861901430097549159 -0.082655566211779038510166 -0.061106886671891832985004 -0.032231787053458110792192
76.000000 0.071220875841401673489450 -0.002823354112066605269005 -0.063484531130951316058031 -0.079460646871178486350118 -0.059131225968919003121993 -0.031385474056430308353871
78.000000 0.068663487156762445517977 -0.004852822129233509869384 -0.061824200117456262759674 -0.075706810137568761320814 -0.056737852114839282258174 -0.030301887585507638472881
80.000000 0.065918861794779820550971 -0.007377451260437469481024 -0.060521263868409544417482 -0.072310041777679717744931 -0.054526977304526574874544 -0.029262568234983622056378
82.000000 0.062969125994944571966805 -0.009773140649219726194818 -0.059113240415991523402095 -0.068765172733255566783761 -0.051624666703558738656277 -0.027794175958170321688590
84.000000 0.059856317486401459937451 -0.012427354081629459967018 -0.057746047799611142925524 -0.065314934192401363777236 -0.048550436232085415755311 -0.026199555594591951435124
86.000000 0.055600318741380473641644 -0.015283014564342958796495 -0.055734881588633509996722 -0.060966305796537938188617 -0.044280156340625494160168 -0.023795204677101257362271
88.000000 0.051396695630395637655052 -0.017762274185727039421678 -0.053390109943396830971540 -0.056621572080458572318040 -0.040226362976144326710770 -0.021597371692707048596027
90.000000 0.046785456744381510862940 -0.020776351431436031191868 -0.051364555814239772069119 -0.052582041657932621081528 -0.036414035969991882801811 -0.019574665926511667507492
92.000000 0.043685356795238675098325 -0.020001004605213212189652 -0.046724132842178238422814 -0.047227119078180959665936 -0.032575509119693098203374 -0.017777446594454036910005
94.000000 0.041749402165156442034988 -0.016942372305333713855546 -0.041054023963329980273507 -0.041617924282003296299060 -0.029025796808562653872343 -0.016234045155572199986560
96.000000 0.040633257914813647460051 -0.012766647217163374847249 -0.035021152132330882200684 -0.036014585247616172358764 -0.025613896394135322182040 -0.014791983445402574065541
98.000000 0.040438188862380965160614 -0.005679219342274104999346 -0.026522443121958561018658 -0.028728843692200346088272 -0.021940323920086268749685 -0.013416626478707333394724
100.000000 0.038955421161383049777349 0.000864010988859537673416 -0.018461218744675739200645 -0.021819142107837651706204 -0.018258426147387315369164 -0.011883144131875630206130
102.000000 0.035766673340348477394546 0.003513740443799931272018 -0.013754822851041275527662 -0.017349917144200682067590 -0.015468924785728683721220 -0.010533822855353900532771
104.000000 0.032612283858067289687988 0.004499757256208850204893 -0.010682574577002848514873 -0.014117596297723515597067 -0.013179398547241387776308 -0.009323247089250724650711
106.000000 0.029834227381983300514401 0.004899879257658672389308 -0.008388661500273888668722 -0.011541324539617762306998 -0.011324916632383592515754 -0.008301755829688041432579
108.000000 0.027575776994538475639374 0.004837613180256768001530 -0.006838739315063516871485 -0.009638814337244016455797 -0.009895633223782370271882 -0.007485301708290458162776
110.000000 0.025216278912734629152892 0.004324494531730132054759 -0.005954953247259849556661 -0.008311206631939625430472 -0.008730846699799052479385 -0.006718312645906212784985
112.000000 0.022584680679474354592084 0.003636014245198827734423 -0.005185416067328508203660 -0.007069425596836586937755 -0.007621105981863053949188 -0.005978350093794701503036
114.000000 0.019436649173036391058389 0.002607042616554952011582 -0.004520810265558183188572 -0.005847462889033584049203 -0.006473889078816423905960 -0.005197888127602646665681
116.000000 0.016728284736843696683950 0.002033925507907637184740 -0.003694957405920470863009 -0.004598722048369178853899 -0.005381951608924894284169 -0.004466897661327935177555
118.000000 0.013985457319533513981247 0.001410652377990792398499 -0.002899851978642961972121 -0.003373499725453478394893 -0.004275657421348891956692 -0.003711235253328048436933
120.000000 0.011350666961454465228587 0.001056506177608023365477 -0.001972578422800038474433 -0.002082368286742083875879 -0.003156831487716376533070 -0.002948044461598112089135
122.000000 0.009006884386597194952495 0.000846168398499200224983 -0.001081158154382797593682 -0.000886195740486026548900 -0.002118390460263759340204 -0.002229570145218612471638
124.000000 0.006771244093111769210558 0.000748991374401574913633 -0.000173475252080579393993 0.000290357171885546525274 -0.001104053238416477988534 -0.001523263430180406882014
126.000000 0.004703467782299368751819 0.000513588487287888685769 0.000479136214553124847523 0.001200129034190243167493 -0.000260821086545637954249 -0.000914857450923646010367
128.000000 0.002949722679592829167883 0.000366032997407463663204 0.001082911745069283599927 0.002014636901269238698081 0.000460517001541437464782 -0.000404942641668825211235
130.000000 0.001321256730213865105208 0.000139923716761040597576 0.001538635874054250637574 0.002675968511261395555573 0.001075710479274836735633 0.000042569371612043747715
132.000000 0.000010492674350862087957 0.000001177920006281149000 0.001939067665013034054075 0.003234931372956373167582 0.001588925957486803097751 0.000413694715413804410195
134.000000 -0.001036779000901618666072 -0.000094018772098850803432 0.002283837701551326947180 0.003709034806985927676393 0.002008792689431906225428 0.000713207000837689500047
136.000000 -0.001932249029222367180114 -0.000207803622218813882931 0.002536506370841313823955 0.004074471008471685674890 0.002342357085160175125121 0.000953441606865472988941
138.000000 -0.002491136563298938441657 -0.000234265375925210659475 0.002752106676728147734851 0.004361607442675746737493 0.002584500355605060147035 0.001121058744353726306306
140.000000 -0.003028802901493888363044 -0.000342771641004145232075 0.002866310481048784091634 0.004549731266802428675255 0.002755984105557223937111 0.001241038738261224369172
142.000000 -0.003155113812695115385609 -0.000341963563278079268719 0.002947386802110783365211 0.004656913328571982493842 0.002831614332601052694965 0.001283830457139240651537
144.000000 -0.003263354414813100096149 -0.000345710350694574558052 0.003015754167561654919966 0.004750890296627951168984 0.002897736671641211979311 0.001321130852503261780828
146.000000 -0.003374671195272604604098 -0.000353318668363547755493 0.003079145882607501119588 0.004840668201464493752839 0.002961923200852398067873 0.001358007471915909179089
148.000000 -0.003483235792964940995969 -0.000362817293954943427634 0.003138042976291482294426 0.004926090333431362537631 0.003023132584000670294855 0.001393323587940290984519
150.000000 -0.003586630907553991966935 -0.000373309427941469370010 0.003192877128074787101975 0.005007336082905115316743 0.003081076355312437758949 0.001426640845368547152322
152.000000 -0.003683673669816919099551 -0.000384229719649501106921 0.003244133859757468082985 0.005084782255969175039645 0.003135777357959081395461 0.001457802291053326418022
154.000000 -0.003773936698296129124003 -0.000395224234562443100128 0.003292323407469983746754 0.005158924243931301868715 0.003187443695915222890980 0.001486822824038949763040
156.000000 -0.003857526945098178113719 -0.000406085512642928472653 0.003337965992100833806377 0.005230332364633106558005 0.003236409795840467298889 0.001513838121334971789991
158.000000 -0.003934929871005196123923 -0.000416718901629715174177 0.003381575338998491116194 0.005299617779264348751966 0.003283087380990190422281 0.001539062609350612181522
160.000000 -0.004006863009292597338495 -0.000427104372878714161257 0.003423645434925513906382 0.005367399578410697938424 0.003327927034460687830825 0.001562756059946333268146
162.000000 -0.004074161173472264953210 -0.000437268236267126023369 0.003464638675396933611972 0.005434280991647458258775 0.003371387078699369932444 0.001585196802836007397286
164.000000 -0.004137700041066513269306 -0.000447270424830173202093 0.003504978548879864909404 0.005500832442224976026601 0.003413911211743450406508 0.001606661699193589424445
166.000000 -0.004198333688975401309373 -0.000457182646721066769484 0.003545050462476111337307 0.005567585789065868095982 0.003455916722019308339603 0.001627414374247022682204
168.000000 -0.004256864252837717736699 -0.000467083067864168522115 0.003585200114070467673766 0.005635028587536026166427 0.003497786773604096271367 0.001647698165020889272264
170.000000 -0.004314020025627734317153 -0.000477048766425687391108 0.003625736971398900616859 0.005703605645742609170368 0.003539868274260420197980 0.001667732379571511486596
172.000000 -0.004370455609144985840986 -0.000487155759095174271944 0.003666934845040682993539 0.005773720605658616555900 0.003582472805944381284704 0.001687712410990039159711
174.000000 -0.004426747978150714912804 -0.000497476121191092052198 0.003709038760535861723594 0.005845742676043329082158 0.003625879777968389616749 0.001707810965616407723744
176.000000 -0.004483402507544849945054 -0.000508071762893594130669 0.003752274516357383387505 0.005920015702717123899645 0.003670342347187259893215 0.001728180838410062029886
178.000000 -0.004540870304493176135008 -0.000519012205010200124503 0.003796838738811282847746 0.005996853999667485848879 0.003716088092947939913041 0.001748956533758462420294
180.000000 -0.004599543885884301019917 -0.000530353879150242631980 0.003842919509770005050131 0.006076558996039638921305 0.003763327061707811508479 0.001770258151496603704622
182.000000 -0.004659775621157781141934 -0.000542151493478557002133 0.003890693552636400806555 0.006159421301920566665933 0.003812256524362994409422 0.001792194614664650983635
184.000000 -0.004721883034318821725783 -0.000554461548468994413000 0.003940326292729523852132 0.006245721467291344593253 0.003863060353690691076101 0.001814864307166597946763
186.000000 -0.004786158225781706257451 -0.000567338858832641635896 0.003991979860341062814888 0.006335739805917891404041 0.003915918127524887354385 0.001838359706859850730212
188.000000 -0.004852873611349538436610 -0.000580837720506813888662 0.004045814633674053341361 0.006429758871019594819451 0.003971005912863140654978 0.001862768355421075055708
190.000000 -0.004922289699294547446473 -0.000595012498428311984756 0.004101991750772025421834 0.006528065573338736292397 0.004028497881551048979965 0.001888174307362105877953
192.000000 -0.004994657009264041359897 -0.000609916623532957748871 0.004160677588299852187881 0.006630959172847446930765 0.004088572469301985680412 0.001914660880290748384489
194.000000 -0.005070228257509006714043 -0.000625613506616021393392 0.004222037705088418739485 0.006738747107261792990140 0.004151410821846804495572 0.001942311008198710107694
196.000000 -0.005149253903048690850230 -0.000642162675663729117306 0.004286249749469478453889 0.006851755894947074952694 0.004217202081550865643000 0.001971209388281152264516
198.000000 -0.005231991856991810053990 -0.000659630828547571397731 0.004353496103340650374980 0.006970327510761966695318 0.004286142339961579450502 0.002001442334471573679389
200.000000 -0.005318709200999474466520 -0.000678086854755075691369 0.004423971364212459303489 0.007094826792182186425695 0.004358439846642561156520 0.002033100573811265354696
202.000000 -0.005409681722085807331624 -0.000697604699462077665166 0.004497880081202207391833 0.007225640252679839913019 0.004434313433561500560065 0.002066278293986175199071
204.000000 -0.005505201805319616045753 -0.000718265653400024456712 0.004575439767062160038857 0.007363181474456932835981 0.004513995853331567546796 0.002101074825055914731264
206.000000 -0.005605578271934399427201 -0.000740153083572127204817 0.004656884344217037709213 0.007507893712190202503698 0.004597735621663390399860 0.002137595667849590246740
208.000000 -0.005711139393245097568841 -0.000763361811784241117707 0.004742459630132471459785 0.007660249010272025468882 0.004685797288824735187807 0.002175952791885398928534
210.000000 -0.005822234362539578135520 -0.000787989962923062474062 0.004832432474171025581222 0.007820756582507181267627 0.004778465046759911884211 0.002216265903447470729526
212.000000 -0.005939236958633336421753 -0.000814146223268384650051 0.004927085555982881580339 0.007989960457767161794429 0.004876042414124642267181 0.002258662635101460827713
214.000000 -0.006062547510527902666633 -0.000841945815371845755759 0.005026723473122210981978 0.008168444780732871113305 0.004978854164262126041907 0.002303279328247656142920
216.000000 -0.006192593938262930600147 -0.000871513007481075413149 0.005131671985066012242616 0.008356835826245571918758 0.005087249340448984392948 0.002350262543390715767877
218.000000 -0.006329834583144003899713 -0.000902981277996913324173 0.005242280371303499435232 0.008555805176948278606419 0.005201601649800500007381 0.002399769121459888535086
220.000000 -0.006474762880784035341819 -0.000936497160857436856257 0.005358921703183390852776 0.008766072232084807722141 0.005322311640826696971240 0.002451967322875661312032
222.000000 -0.006627905385527252390965 -0.000972214380344922331559 0.005481996745315726934922 0.008988407245189728236867 0.005449808138778830871041 0.002507037396588703438011
224.000000 -0.006789826282478867228165 -0.001010297869075837831968 0.005611934388806460831389 0.009223633080049080390506 0.005584549217858612510379 0.002565172116488417981828
226.000000 -0.006961131377334914792365 -0.001050927344428455485759 0.005749191483968578604558 0.009472627363713272130585 0.005727025430329363460402 0.002626578745639009809798
228.000000 -0.007142465314300959142169 -0.001094290525889778271929 0.005894256614905672014837 0.009736324174307366477454 0.005877759087327003896528 0.002691478488654322921009
230.000000 -0.007334516345094730695175 -0.001140587811171416910208 0.006047650139690349466171 0.010015716595822876308630 0.006037306579648603517552 0.002760107705403489018053
232.000000 -0.007538020120924251825378 -0.001190036190725290814185 0.006209922397403077991285 0.010311856088600452815984 0.006206259856053042249513 0.002832719289221514828714
234.000000 -0.007753762099237121972750 -0.001242864798849220272017 0.006381659801318008071180 0.010625858359862190571921 0.006385248160047834846409 0.002909583146561485911957
236.000000 -0.007982580498067203336743 -0.001299322231917240727181 0.006563480649118016291288 0.010958904143113051138370 0.006574939825791111837339 0.002990987225652342370447
238.000000 -0.008225372561819051242527 -0.001359676701144112154207 0.006756040443845863323336 0.011312248779133875914438 0.006776048038853494867584 0.003077239833784787149257
240.000000 -0.008483105416270845383631 -0.001424225500096160763538 0.006960032120173382207129 0.011687232037380033619622 0.006989335099906926647428 0.003168671270617824230892
242.000000 -0.008756828434616377096478 -0.001493301616633571290982 0.007176191660832006470605 0.012085296790517273748944 0.007215621190017183599064 0.003265636470106003316771
244.000000 -0.009047686212288214013810 -0.001567282411065698544128 0.007405307679209344011440 0.012508018467343283083859 0.007455798626048827822121 0.003368519358469208684059
246.000000 -0.009356950931881154870373 -0.001646611959129133618759 0.007648228449160887273961 0.012957140526128937962902 0.007710848494966426533437 0.003477738307728596260648
248.000000 -0.009686039464041701352315 -0.001731807218041632413438 0.007905886649686643882773 0.013434631658780430210620 0.007981865747574617975246 0.003593752731990681580782
250.000000 -0.010036553371304181986323 -0.001823481097002297313808 0.008179320100612799682160 0.013942746178238077728317 0.008270085563127679839646 0.003717070629563251193267
252.000000 -0.010410309641913157580051 -0.001922351915796288723826 0.008469707346040633577644 0.014484098985142048604535 0.008576915950310725136885 0.003848257848745718998767
254.000000 -0.010809374209408997152826 -0.002029258691224606562381 0.008778398591109091986251 0.015061732958704556264995 0.008903967932235398730079 0.003987947169306378311648
256.000000 -0.011236085317848183359746 -0.002145155616664152185835 0.009106957030767189736897 0.015679177832412068832602 0.009253079799040058936455 0.004136845742584328335101
258.000000 -0.011693062308872344962074 -0.002271101025008431719548 0.009457189425700224597038 0.016340477448752357275685 0.009626330620896222239891 0.004295741037755623770167
260.000000 -0.012183187544454524703363 -0.002408219182347012994605 0.009831170457456536379559 0.017050169698052064504168 0.010026032067167713057732 0.004465501441268197521661
262.000000 -0.012709562053036844650467 -0.002557647919064513428178 0.010231241230351451748648 0.017813193813352012212503 0.010454691248577254597540 0.004647070936539272022203
264.000000 -0.013275428687808730685016 -0.002720471303328070040300 0.010659970714459100771254 0.018634711235737341089580 0.010914939085664003906584 0.004841456320932412647762
266.000000 -0.013884060960210270821436 -0.002897633439248584272946 0.011120082635045920246841 0.019519842982965548289220 0.011409427308780917265096 0.005049707966429250495521
268.000000 -0.014538643617480626057947 -0.003089870253990895359458 0.011614332811291630878636 0.020473343463340860221011 0.011940701954965186534774 0.005272895788562746016703
270.000000 -0.015242156270498682241188 -0.003297657028534670565351 0.012145356029151942525712 0.021499255821732326382500 0.012511076182404918741287 0.005512086440721921873354
272.000000 -0.015997298066442310060520 -0.003521214394331322310866 0.012715497174527554818946 0.022600632840186693495177 0.013122533940958318668391 0.005768326776351312065727
274.000000 -0.016806475006991606485629 -0.003760566704781759771181 0.013326676056090159400158 0.023779412388237993608575 0.013776700707123314126878 0.006042642044891294653142
276.000000 -0.017671874685736360666155 -0.004015666288448406853751 0.013980313929033353140263 0.025036508165239189371842 0.014474898991115502100424 0.006336050978010830496412
278.000000 -0.018595621873238366711378 -0.004286567725008728207969 0.014677352338470702267093 0.026372146936386259286067 0.015218295240858747616186 0.006649597918931704314260
280.000000 -0.019580027308820503739728 -0.004573643015267741564200 0.015418378212325235462887 0.027786443307996407103833 0.016008136297718859181183 0.006984403176224915008041
282.000000 -0.020627904255985003018070 -0.004877821895261784911069 0.016203847119099515361462 0.029280169303009397074877 0.016846054664093831204630 0.007341725860057634819866
284.000000 -0.021742956957635759668301 -0.005200851111511064529813 0.017034395075813411890575 0.030855676554642847558840 0.017734430221110028536025 0.007723040015126104822218
286.000000 -0.022930232747349635347156 -0.005545566523687074644844 0.017911226622896226495785 0.032517937184021218632868 0.018676797798061597899455 0.008130120580358977250279
288.000000 -0.024196588321231136953227 -0.005916119209949626325806 0.018836608685886827713185 0.034275685420018242588469 0.019678290893462142135961 0.008565135933385373961935
290.000000 -0.025551029196208420446457 -0.006317998945666141764888 0.019814523950817012482029 0.036142560821788315139624 0.020746066031299571080782 0.009030725543486443213093
292.000000 -0.027004486656209168021769 -0.006757420357840908040070 0.020851600341130465537942 0.038137914391826989446432 0.021889534973110719162648 0.009530008652018386733351
294.000000 -0.028568149264738811748954 -0.007239247916769481379362 0.021958327287434201147143 0.040286183686406400183966 0.023119855021716078508076 0.010066364779325921025022
296.000000 -0.030249215060286348266683 -0.007762675473319101925040 0.023149768406634890077767 0.042612121642059942738801 0.024447392235223758955032 0.010642663793542943284631
298.000000 -0.032044186342329361583126 -0.008315600647517034163525 0.024443162020467555650693 0.045127863112778332510544 0.025875493755395408829179 0.011259632307313024307538
300.000000 -0.033933004934933466700819 -0.008871690041868881410059 0.025849773910834056983576 0.047812644091506345533915 0.027391913384528013969410 0.011913956437733306051308
302.000000 -0.035879144059647961884085 -0.009394333938130435684988 0.027363940785213959616673 0.050598632154791774173663 0.028965478543167937075520 0.012598176977799397865954
304.000000 -0.037837375038407235205984 -0.009847176939374474927136 0.028956820922501850384956 0.053377863079673716628637 0.030553797190624253088398 0.013303414835346678499195
306.000000 -0.039764886604142839210407 -0.010205705898810842405244 0.030579050977626774654450 0.056027536361298847789048 0.032115572861743886534658 0.014022359748389626177278
308.000000 -0.041629296555606640217739 -0.010462392449840670835548 0.032172530155011237751328 0.058440322775871141047777 0.033618250643821519230148 0.014749794732989535486767
310.000000 -0.043409709182078703992858 -0.010622283878897641890005 0.033685723393332693553770 0.060545193857836979156595 0.035039735299881004382261 0.015481532941632075370264
312.000000 -0.045092022352886597380550 -0.010693800589448253929303 0.035083340102891338863067 0.062309994359895030935359 0.036367124646885039263022 0.016213719554424129570824
314.000000 -0.046663076355897968594544 -0.010681887579661104858975 0.036347781247124719139485 0.063731673449612863402436 0.037594613657786601912392 0.016942654110382118076705
316.000000 -0.048107368258282261208603 -0.010586774659390243980006 0.037475324878970789344024 0.064824610259193171657444 0.038720975582902002198882 0.017664471445708554431242
318.000000 -0.049407283507882072959294 -0.010406772867932069862040 0.038470352842893906775146 0.065611737500412131707250 0.039746790683876584426848 0.018374572585485138276340
320.000000 -0.050545740650634891910631 -0.010141564692749805917660 0.039340176511503524570124 0.066119053266812333191638 0.040672077387265997971966 0.019066887968712611239885
322.000000 -0.051508704848268589693294 -0.009793900084451094903426 0.040091386330763909007224 0.066372116972268302426130 0.041494338987161510923229 0.019732802658100418585763
324.000000 -0.052285313721335921477440 -0.009368499611951025193846 0.040728743414768328601205 0.066394131591936356162620 0.042207259098739687008806 0.020360057187873325384997
326.000000 -0.052866681102362304833786 -0.008869406971912350765019 0.041256161539278572714107 0.066205320086476324159541 0.042800310142946919322871 0.020932360980834136682249
328.000000 -0.053246173465914939382237 -0.008298964122957887615262 0.041677299299708404911602 0.065822279380980217022845 0.043259073637126790878860 0.021430177920311370420858
330.000000 -0.053421254225994425912649 -0.007659401072917088743042 0.041994427825656953368050 0.065256814001569601879638 0.043566496220161732289000 0.021832757876878453040526
332.000000 -0.053394709890160221843480 -0.006955304179031011196921 0.042206449578147543777451 0.064514994182657783849955 0.043705234820650848415191 0.022121072287407811396420
334.000000 -0.053174792351426074243914 -0.006195890226541277828742 0.042306565965309822496820 0.063596171894069200569710 0.043659881638605270437470 0.022280974903067296555292
336.000000 -0.052774338130920195322204 -0.005396166020216399718257 0.042279999430870414400818 0.062491355691727548671288 0.043417294149596621921638 0.022305250160274837228913
338.000000 -0.052206807741104657716313 -0.004575022660238579723380 0.042103788520609565504405 0.061182626234383495622549 0.042964923548654707086136 0.022192902950148630375482
340.000000 -0.051479794191177846718332 -0.003750558775533659183754 0.041751125275132534853118 0.059647552625877835186241 0.042290690214919442191377 0.021946710732564895379726
342.000000 -0.050592604735093901768828 -0.002936602310137068766460 0.041199680299189481158528 0.057870126054941573023882 0.041388209151310410838231 0.021572288306574635696755
344.000000 -0.049540795742914568722259 -0.002141555226297874817837 0.040441228385511188148094 0.055854241963430771578114 0.040264752912912468718609 0.021079185423791696463169
346.000000 -0.048321526902144591730792 -0.001367260522837691243472 0.039487677866081906385975 0.053629886697363113312598 0.038943731818212576345495 0.020481029573672551724606
348.000000 -0.046935405093290007150220 -0.000608041007102218364518 0.038370236022991895119549 0.051247952689790758629140 0.037459021953864100884513 0.019793266322768059140014
350.000000 -0.045387480758598629237976 0.000145801636725166551458 0.037130312267715771812338 0.048766692116908476328785 0.035845845511240037595257 0.019030289916182430848268
352.000000 -0.043688267650130632735461 0.000900874335772660185875 0.035805876516497602002342 0.046236126163559480850562 0.034133171298200828958080 0.018203633208726650860587
354.000000 -0.041853352429025852954325 0.001656322624128930397908 0.034422126657625229384507 0.043688985433772607736014 0.032340724595383202322196 0.017321715665761877600559
356.000000 -0.039903261876200211977217 0.002403017468997507843920 0.032990178389174423800867 0.041141519947909190035862 0.030481448604567154547773 0.016391316829566713458854
358.000000 -0.037863040891594375303431 0.003123539349519219819606 0.031509924660663386764003 0.038599360775997688943750 0.028566838609472025578562 0.015420016552880262336589
360.000000 -0.035759720033191340349266 0.003792549644504653299365 0.029973189313395272315166 0.036062886790150225357898 0.026611003136995142054344 0.014417878300416547832086
362.000000 -0.033620482662933139084149 0.004376494359357111646469 0.028365543227853964869389 0.033529727370269941932879 0.024631030771296552606131 0.013397309657602848517732
364.000000 -0.031474808341458090921172 0.004830462419476885295444 0.026666131927254779071523 0.030994835147844627259994 0.022645401564434373270496 0.012372165035415499598215
366.000000 -0.029359194229392635011600 0.005095271396116587622749 0.024848102761072105026940 0.028450859134809106804065 0.020673219344443313771897 0.011357311558600192286095
368.000000 -0.027317947418497037781471 0.005104915562543775250925 0.022885388407310608416267 0.025891882392337486895606 0.018734251889185801753790 0.010367927491829298514148
370.000000 -0.025392876106266185076699 0.004812188654601098382335 0.020769142814343843211899 0.023321903253345183104628 0.016848838735887133877256 0.009417663826256049419694
372.000000 -0.023605253838968581758806 0.004219977993296574955706 0.018525378636702428958305 0.020763888444943996020031 0.015037672817409877823458 0.008516603107775508330057
374.000000 -0.021944837765022134207227 0.003393239990678348100978 0.016219561377619214070922 0.018262056645784455893855 0.013321559550924491968638 0.007670586898323580524184
376.000000 -0.020375350661499758153639 0.002444149100698387189895 0.013945135323513799946449 0.015875348872481157697090 0.011720589970866352597101 0.006882072106166943654959
378.000000 -0.018853816548502152355971 0.001499098732355985024237 0.011800854382144490908879 0.013663811983489929785529 0.010251843685034598557815 0.006151624257620991013951
380.000000 -0.017350822836415223660023 0.000662634249520963948023 0.009865731325055332456841 0.011673067181894300481382 0.008926216273565486941655 0.005479004199127199964403
382.000000 -0.015857039085460693933483 -0.000002931330563770441060 0.008184538996223081341874 0.009925520582354420071058 0.007746641621150045751987 0.004863307285811532300335
384.000000 -0.014375451231255274506249 -0.000475852009713164053693 0.006768491236709423507223 0.008421167081215872804445 0.006708204731583937256711 0.004302307490822214475212
386.000000 -0.012913004364295084178127 -0.000763879551147168128766 0.005602926060844943059736 0.007142634301509230912441 0.005799194175777937047822 0.003791968885746567399092
388.000000 -0.011478002533911900104324 -0.000893724786179775397901 0.004655985761762376773376 0.006061151988215798119830 0.005003232765014410145243 0.003326862226886306925927
390.000000 -0.010080783603644866142091 -0.000901715290112915985633 0.003887964505208277819770 0.005143377299877924767324 0.004302583734712058134708 0.002901328085725902398290
392.000000 -0.008734685153409534053015 -0.000826100843403380739882 0.003259594745596226458839 0.004357612093356718480086 0.003681305165780162334810 0.002510624770807906580572
394.000000 -0.007455879856299743244086 -0.000702224099246209548450 0.002736938570217237534643 0.003677372372721636906850 0.003126873688386363168978 0.002151458038288535726257
396.000000 -0.006261215499190007569008 -0.000559605562296277376719 0.002293245548957601343681 0.003082410625723666728476 0.002630286811814737737980 0.001821864627721160936891
398.000000 -0.005165317153026868952914 -0.000419976609266633528483 0.001909393871052528397769 0.002558571951478422028259 0.002185584028785194678213 0.001520926388899282270806
400.000000 -0.004178986961376080291886 -0.000296555545662698072894 0.001573481457224081133880 0.002097164628318759754116 0.001789407967084927783899 0.001248651924616549918623
402.000000 -0.003309526915990133270201 -0.000195366802353723811522 0.001279275098683163927604 0.001693646974130999212707 0.001440418565672580992337 0.001005836312751181042466
404.000000 -0.002561548727398058316468 -0.000117759467143884361288 0.001023878276444157046574 0.001345703929427365325502 0.001138290307527157520229 0.000793611061950962319751
406.000000 -0.001936833973476244927583 -0.000062549976901074438884 0.000805797579269173125556 0.001051653749403239600235 0.000882715984252693190541 0.000612845036742723763695
408.000000 -0.001433084060885668085603 -0.000026949411134844772006 0.000623865404014989030114 0.000809495782845472285592 0.000672649261664901108176 0.000463615492507755077266
410.000000 -0.001042603529590559793133 -0.000006887649906202314991 0.000476645083963662290812 0.000616271301034785582047 0.000505758014192644812963 0.000344822562226464982178
412.000000 -0.000751819422032168902317 0.000002415312699835905889 0.000361734789557226731060 0.000467455708347585912037 0.000377995075708618629741 0.000253896225115385137331
414.000000 -0.000542603720222485934495 0.000005411334646159827357 0.000275218424838440502492 0.000356647901201416527364 0.000283541503087816578518 0.000186817219880600716769
416.000000 -0.000395614745723940847231 0.000005393515361001051418 0.000211965867433491864666 0.000276262723172259426745 0.000215540794934426023933 0.000138708340167705880281
418.000000 -0.000293843414276961760207 0.000004215695985550532747 0.000166601484548768892513 0.000218881946306556586946 0.000167388599347603181161 0.000104825757364766686025
420.000000 -0.000224102434682571678964 0.000002683804449588664581 0.000134339504935099079107 0.000178188905133597164879 0.000133570237180906733901 0.000081215626470104932268
422.000000 -0.000176678746790975729590 0.000001189117452954985356 0.000111477255582991202978 0.000149373185606314884920 0.000109904872176523206559 0.000064874154019932024086
424.000000 -0.000144557116536834319226 -0.000000082275766975811588 0.000095250944043235279005 0.000128881872682109859234 0.000093324155848739949307 0.000053598422148045155619
426.000000 -0.000122729409095728670895 -0.000001049774797688433909 0.000083650951909949465470 0.000114145569572092194042 0.000081606484491837359978 0.000045791976902686622631
428.000000 -0.000107655443328766883913 -0.000001712663551140356061 0.000075204034361929934490 0.000103305957531201370340 0.000073167427782385902643 0.000040319483156204204664
430.000000 -0.000096937158851834000412 -0.000002116199034414140931 0.000068880948473936154971 0.000095075715811172211095 0.000066901550350108058163 0.000036380581629900418498
432.000000 -0.000088989531537601515576 -0.000002318868417608341220 0.000063964886003484256274 0.000088567668465102736817 0.000062052180632430855483 0.000033434614947224556203
434.000000 -0.000082800044110076654984 -0.000002389682473715080903 0.000059969975228527708764 0.000083197397123853099083 0.000058124622060856805951 0.000031126797842078651540
436.000000 -0.000077737778657120624732 -0.000002366383328915526142 0.000056588828828755174927 0.000078585572414395594358 0.000054805058836269272609 0.000029232328583417616541
438.000000 -0.000073407356446541686219 -0.000002289194760781167329 0.000053630592164021336160 0.000074505109007884742257 0.000051900204818545120973 0.000027612216193078788744
440.000000 -0.000069578459348564817687 -0.000002174976802476189910 0.000050967391316308900586 0.000070796256138554652460 0.000049274895382735419617 0.000026173506923537497482
442.000000 -0.000066102886152331918369 -0.000002050877178689309204 0.000048501773626903724223 0.000067347469854481755401 0.000046852518559749676684 0.000024863089284850755343
444.000000 -0.000062883316652055719180 -0.000001905277136679622667 0.000046207905772075690400 0.000064123273112862792518 0.000044593965637152925910 0.000023651503121361569819
446.000000 -0.000059890913632163533050 -0.000001782461151309434351 0.000044033567114523781917 0.000061071862784385695807 0.000042466442993568324481 0.000022518901169271702742
448.000000 -0.000057051146248608289129 -0.000001667511487396921097 0.000041953651844820839866 0.000058155208158155569759 0.000040439027342777974898 0.000021445281070374906570
450.000000 -0.000054379469506672075058 -0.000001557898479521959101 0.000039992133359872508226 0.000055405515620871895416 0.000038524553839235729639 0.000020432238126686497583
452.000000 -0.000051833669801185635543 -0.000001466715822202370867 0.000038111136014762463109 0.000052781935394342300119 0.000036701548307567541764 0.000019467962763782185290
454.000000 -0.000049422233632267831066 -0.000001412071002396598454 0.000036290744597744694830 0.000050264496720624571172 0.000034956908446900348782 0.000018548733043637458015
456.000000 -0.000047120445528468511199 -0.000001382510033753782849 0.000034533196206903998436 0.000047846320357521051139 0.000033283671865502902337 0.000017668987189260859628
458.000000 -0.000044919210652797825667 -0.000001333577138101319860 0.000032876890929933670735 0.000045555946901206363598 0.000031701354711524604754 0.000016834772185511613358
460.000000 -0.000042812790074287246313 -0.000001302825626329052013 0.000031278448079155106822 0.000043354445234758165516 0.000030178470662886982059 0.000016034500678745681736
462.000000 -0.000040816950906533036418 -0.000001278252602792370010 0.000029754945567102610569 0.000041257459193488864866 0.000028735464753575192052 0.000015275183735730154112
464.000000 -0.000038893338401241011183 -0.000001240179441369257517 0.000028310113176046867761 0.000039264595032988433120 0.000027356219189169900371 0.000014546404160785087760
466.000000 -0.000037050361958549334388 -0.000001202319841615789552 0.000026936768367125053705 0.000037366207988160725741 0.000026037891736136580532 0.000013849446055622164126
468.000000 -0.000035291481308458696662 -0.000001136383985470893850 0.000025660330579294469999 0.000035588453969593848930 0.000024795950839622097765 0.000013188915436184062518
470.000000 -0.000033590304419603926990 -0.000001075369699941450433 0.000024424036033840670895 0.000033872342972692459293 0.000023596205749829367141 0.000012551295103877505941
472.000000 -0.000031974358832171213916 -0.000001010082727053232416 0.000023255979962521462843 0.000032245350938289720161 0.000022462098699482902051 0.000011948902722901123187
474.000000 -0.000030432648289176125208 -0.000000954140331591953821 0.000022135881767548951608 0.000030692906767161530208 0.000021388348933349359801 0.000011378942159871194303
476.000000 -0.000028965148089360023880 -0.000000915217231613100526 0.000021054973920559490094 0.000029199345285403617925 0.000020351374397305291704 0.000010830041004259344283
478.000000 -0.000027571062802554109183 -0.000000878884357169997152 0.000020029453204442938422 0.000027781107469238810521 0.000019364057443207603244 0.000010306220183975323444
480.000000 -0.000026236122843789205376 -0.000000834362564982857696 0.000019054349969057959223 0.000026424893001276213590 0.000018421184434629392054 0.000009805985188694425414
482.000000 -0.000024955069197156858762 -0.000000772614565427364991 0.000018153050925454612387 0.000025159231152546533564 0.000017527808281504952758 0.000009325666793017041092
484.000000 -0.000023744818607783723497 -0.000000740266138587239807 0.000017277764496979821398 0.000023955014340980649971 0.000016684279920261881069 0.000008875067167558775739
486.000000 -0.000022582581558003910556 -0.000000697633671572276909 0.000016436811030225284823 0.000022789604525529029346 0.000015880232941200234326 0.000008447479959847973842
488.000000 -0.000021481749300638354721 -0.000000661743900623602339 0.000015633887077334864273 0.000021670397369759605762 0.000015096348281547010390 0.000008029817763636484199
490.000000 -0.000020436767901609001512 -0.000000608831990594954141 0.000014892363030605650434 0.000020632770358181157786 0.000014368977320289191322 0.000007641014600196467392
492.000000 -0.000019451929818519678866 -0.000000586623821614563311 0.000014166315520418206185 0.000019631978304195847889 0.000013666497470894418373 0.000007266652867939277000
494.000000 -0.000018499309536557369629 -0.000000566799635414784907 0.000013463331376053529746 0.000018665646844060043361 0.000012996675909767453538 0.000006912592942220697524
496.000000 -0.000017594263899911405608 -0.000000534467636813113137 0.000012810550646270303158 0.000017766006691573838194 0.000012370399399635877174 0.000006578874092846428439
498.000000 -0.000016759405068938189960 -0.000000511926739312988767 0.000012198932937971212790 0.000016920151678451737554 0.000011783941714687880823 0.000006266259252592527958
500.000000 -0.000015948628648300777820 -0.000000514116228132564656 0.000011583281149564184754 0.000016091586232544681409 0.000011217663608115833763 0.000005966485263144518195
502.000000 -0.000015182507678949185983 -0.000000487240293829765563 0.000011025446125901639319 0.000015314051515429901443 0.000010670335536885425863 0.000005675794047335547066
504.000000 -0.000014468420978673840872 -0.000000476236724143923136 0.000010494351027829198000 0.000014580613783482948033 0.000010154478378725961506 0.000005402096590305860247
506.000000 -0.000013758035210609028401 -0.000000457005686781731321 0.000009974345490410394240 0.000013864684892904003790 0.000009657640904630213495 0.000005137430303465048676
508.000000 -0.000013097889501423757371 -0.000000437378913675495425 0.000009503430840356333627 0.000013215271363067875195 0.000009207841866913598933 0.000004896396321848590567
510.000000 -0.000012477373759414456142 -0.000000424651245190457526 0.000009042392054927109960 0.000012584737936437941812 0.000008769414717934547729 0.000004662076527416797691
512.000000 -0.000011879850731608537762 -0.000000408708396002460277 0.000008601939911188428626 0.000011977906771314604360 0.000008344349209629744413 0.000004434139341455507126
514.000000 -0.000011306670646528652028 -0.000000389690559226839877 0.000008191176903843292654 0.000011399481229985643395 0.000007936992053172075019 0.000004217448067474106825
516.000000 -0.000010750602385884734918 -0.000000348042808842085646 0.000007815488929637645488 0.000010861511050931373882 0.000007556272720417489105 0.000004016734825804254847
518.000000 -0.000010263072235760038658 -0.000000348213650614052960 0.000007447375406165098565 0.000010358451682361385622 0.000007209729268707464422 0.000003831321460139422028
518.780000 -0.000025489998280486069441 -0.000019608846291593358949 -0.000009526971142164665895 -0.000003215477370631853366 -0.000001464122583084869059 -0.000003379838011418642381
520.000000 -0.000009775268587437020620 -0.000000317571753666785299 0.000007114972167208661488 0.000009893051140935035001 0.000006889314024312476694 0.000003658148924078818730
522.000000 -0.000009323278463513044964 -0.000000317878617067148429 0.000006768960442433521819 0.000009423840151171735874 0.000006565722158947339223 0.000003487257441711446837
524.000000 -0.000008849610941928065760 -0.000000296955296941086655 0.000006439446039318837130 0.000008961826282384542528 0.000006241748903939328134 0.000003315928529644338312
526.000000 -0.000008440209084525448859 -0.000000314303586223703294 0.000006112047271910200582 0.000008524182409915258577 0.000005941246399729796216 0.000003157506199294090671
528.000000 -0.000008024646324138490853 -0.000000268634361981162237 0.000005836612601605311366 0.000008126872832048722800 0.000005667268549383618768 0.000003011102445146390731
530.000000 -0.000007629303133629977566 -0.000000243448209207869549 0.000005560903246868814090 0.000007738163884069725789 0.000005394893082344878682 0.000002865093938792764955
532.000000 -0.000007280164393197787372 -0.000000238042331991516457 0.000005301553753355490031 0.000007380404251247100641 0.000005143255680303609337 0.000002730060466057223719
534.000000 -0.000006947170568653041352 -0.000000244474343442232192 0.000005039778414814681641 0.000007027563567485419269 0.000004900543613163296567 0.000002602318655176385787
536.000000 -0.000006611901505428804520 -0.000000218542928367815326 0.000004822576076138351220 0.000006716162262628677880 0.000004670674008082141623 0.000002477427837558355925
538.000000 -0.000006298622295721437671 -0.000000197542310441411973 0.000004611168320488430813 0.000006417091868153839478 0.000004456765253387568709 0.000002360536308341082897
538.720000 -0.000006195284631606143179 -0.000000193920570683027419 0.000004531783629525394395 0.000006306359096392925185 0.000004383451218817852991 0.000002321773312556477050
