0.000000 -0.000000000000000000000000 -0.000000000000000000000000 -0.000000000000000000000000 -0.000000000000000000000000 -0.000000000000000000000000 -0.000000000000000000000000
2.000000 0.000061874149098355092549 -0.000333019149902685524401 -0.001058346915745827414648 -0.001069585045975259907439 -0.000652718212157530415680 -0.000369506674890974237766
4.000000 0.000602514104868956791930 -0.000378343676818695983689 -0.002129712681656556038517 -0.002156699925166594145054 -0.000847705696310399343246 -0.000434150197234748724644
6.000000 0.001523539913119870484182 0.000268169912722379568792 -0.002454117694883157108771 -0.002502779811644950148930 -0.001073293752349919897085 -0.000579101347544968875387
8.000000 0.002984984399088190434174 0.001306752073965550048004 -0.002888659460570397376905 -0.002975279368889048158681 -0.001523275465800804761435 -0.000864447272799733390687
10.000000 0.005258359069540340276216 0.002889464663843093351209 -0.003719823205592413025572 -0.003866891092682958434856 -0.002246364871387035271055 -0.001285241856414046134408
12.000000 0.007598901759671256375683 0.004212907069498124379425 -0.005324406998552575973060 -0.005526118151568558921338 -0.003069176068009105140533 -0.001751319166599918418850
14.000000 0.010613419670662007504580 0.005603335378033961859667 -0.008014063850056889551365 -0.008282186064954641033231 -0.004391502289622176320727 -0.002547519426931209828024
16.000000 0.014268066445938748856848 0.007445499675706042722045 -0.011227262108978104324097 -0.011585868552983314555549 -0.006087566568601917270376 -0.003595662544998094733995
18.000000 0.018391409284713524513455 0.009371313191542636825138 -0.014841833342521563651739 -0.015285875868070394195675 -0.007981522223352372630290 -0.004807031346347636138749
20.000000 0.022567672112309068721547 0.010849366821747651740138 -0.018987074414436446584409 -0.019501657009735138409434 -0.009853197024796821884562 -0.005993224205707521450026
22.000000 0.026444238898370935053617 0.012016267854540676682240 -0.022998033305832703970806 -0.023564738375087386501594 -0.011563724370182026576770 -0.007145982965785154482352
24.000000 0.029998498937051663870701 0.012580443928267081438177 -0.027124450727305533109801 -0.027691210077662342659011 -0.013321692856638998880836 -0.008370100331566418527807
26.000000 0.033534697354416984071968 0.013037548229052257561800 -0.030600302369064889124184 -0.031119159100560938452373 -0.014966792409789531764774 -0.009616587417580388028049
28.000000 0.037246833205437437919194 0.014405931109817946694784 -0.032741562993254161306744 -0.033230041975200616533037 -0.016365698744182845258965 -0.010739735495151699409822
30.000000 0.040702787997966671795780 0.014632057939746451191709 -0.035820728726209331849173 -0.036245129543281448536440 -0.018036920469013513479428 -0.012110426055636355421874
32.000000 0.044371290231919970070695 0.015538444391915604350651 -0.038381457263770055177154 -0.038762074511030843171344 -0.019481595890929574027561 -0.013314774248003789086647
34.000000 0.047800710972152729572038 0.015620093477575376639255 -0.041092340515252220867204 -0.041403722242270700470979 -0.021178269772643330826067 -0.014750231533112039689071
36.000000 0.051306713545986100399876 0.015684969406581095174857 -0.044021008615528954555085 -0.044241786430567392462976 -0.022920875434896150618647 -0.016227066942266551302643
38.000000 0.054787349208607283301831 0.015844973132673717541863 -0.046537213456095655184086 -0.046658055523432072353440 -0.024606041246925416249303 -0.017685570546225819199559
40.000000 0.057868412529925153386934 0.015734165915416886000200 -0.048965524801378237929050 -0.048983075090613600877099 -0.026553839525811119559595 -0.019426281031596551868157
42.000000 0.061140714239308238675541 0.016137688718232571366551 -0.050854121073948217734984 -0.050766706700251428008297 -0.028758998509617956368389 -0.021439631452479554485357
44.000000 0.063562492306759005300520 0.015932474611229600208739 -0.053021373557295796430378 -0.052810981620835445449202 -0.030755733185518403099978 -0.023303856365298844521838
46.000000 0.065393099444447974621930 0.015133604508813758640628 -0.055339340728197752850015 -0.055010107445381727087064 -0.033006592163705557319009 -0.025354865740345299690572
48.000000 0.067412661150251837471892 0.014840507975786423194853 -0.057591923581181918290195 -0.057144382766778675786234 -0.035338284443632655973389 -0.027470378839416883381963
50.000000 0.069418176957194918652583 0.014072429049154722840997 -0.059964831511989634404980 -0.059385703800743996905176 -0.037580034847813720277898 -0.029506794672560451159304
52.000000 0.070675356926773166832412 0.013902296127662147964821 -0.061399199993276143416665 -0.060720729362231280756834 -0.039431445570730111471747 -0.031233623552836285719447
54.000000 0.071319865592015418975791 0.012393982595731640669601 -0.063999960478764675309016 -0.063194685436284078750013 -0.041328929337127590093459 -0.032902889145164052053794
56.000000 0.072022200599974911527923 0.011675738053995524806661 -0.065682424276590808953635 -0.064777544205185125236746 -0.042523695174684190967174 -0.033944467899401239985302
58.000000 0.073257087748934260340583 0.009903140820673568545107 -0.068798987448134174549352 -0.067750539759668035322271 -0.043786652930284962470520 -0.034923106840822573659899
60.000000 0.075135689977326419741743 0.009112627405256883486584 -0.070471098703778919936092 -0.069321397775459966950073 -0.044591275274363448288817 -0.035573097077584568681541
62.000000 0.076125837094600995458293 0.007110464969943384658246 -0.072490812592465703190214 -0.071193271368636110163486 -0.045136528365371061943812 -0.036037800731546679178230
64.000000 0.077026176024890369298248 0.006573959489010324300229 -0.071973899619992121046153 -0.070587045524726749201605 -0.044812084640165332494188 -0.035920230279561336794725
66.000000 0.076602063723802099604043 0.004462498025235480877959 -0.072020711282156008037347 -0.070516922845599239177972 -0.044023245293875974681885 -0.035410984268393626284155
68.000000 0.075919283682685356762221 0.003560233669506327434939 -0.070277604756927222751095 -0.068720939445835182990407 -0.042988111495693544228391 -0.034745955756634416822237
70.000000 0.075644674143903370411302 0.002457215255867059751360 -0.068306386500240956483054 -0.066691703825884504630572 -0.041811861368202564437357 -0.033978687369837640153136
72.000000 0.075133543645082290218795 0.001673264297172359898330 -0.065830611562153348859106 -0.064185191135840660714429 -0.040616198664255587225114 -0.033173536186285719484790
74.000000 0.072826531926266396821390 -0.000496100989547162496765 -0.064355861901430097549159 -0.062683993840048191081848 -0.039337802810877800507861 -0.032231787053458110792192
76.000000 0.071220875841401673489450 -0.002823354112066605269005 -0.063484531130951316058031 -0.061784502524366943787548 -0.038212642115365430539597 -0.031385474056430308353871
78.000000 0.068663487156762445517977 -0.004852822129233509869384 -0.061824200117456262759674 -0.060127917819969331492125 -0.036806363543676480498679 -0.030301887585507638472881
80.000000 0.065918861794779820550971 -0.007377451260437469481024 -0.060521263868409544417482 -0.058820785373638800885843 -0.035480857613288341312341 -0.029262568234983622056378
82.000000 0.062969125994944571966805 -0.009773140649219726194818 -0.059113240415991523402095 -0.057420461960005268753360 -0.033627121132983578410958 -0.027794175958170321688590
84.000000 0.059856317486401459937451 -0.012427354081629459967018 -0.057746047799611142925524 -0.056075062651684402792451 -0.031638203887520637003217 -0.026199555594591951435124
86.000000 0.055600318741380473641644 -0.015283014564342958796495 -0.055734881588633509996722 -0.054106757564378021863050 -0.028743212232792962612660 -0.023795204677101257362271
88.000000 0.051396695630395637655052 -0.017762274185727039421678 -0.053390109943396830971540 -0.051831444177646415760741 -0.026068864794778576904344 -0.021597371692707048596027
90.000000 0.046785456744381510862940 -0.020776351431436031191868 -0.051364555814239772069119 -0.049882739384700038043352 -0.023593213938807432866751 -0.019574665926511667507492
92.000000 0.043685356795238675098325 -0.020001004605213212189652 -0.046724132842178238422814 -0.045389365498574432700174 -0.021283503619812637469577 -0.017777446594454036910005
94.000000 0.041749402165156442034988 -0.016942372305333713855546 -0.041054023963329980273507 -0.039882727307570926822411 -0.019238956978483837123584 -0.016234045155572199986560
96.000000 0.040633257914813647460051 -0.012766647217163374847249 -0.035021152132330882200684 -0.034023133901534115264287 -0.017308105118987643367134 -0.014791983445402574065541
98.000000 0.040438188862380965160614 -0.005679219342274104999346 -0.026522443121958561018658 -0.025721119230865754218263 -0.015357994792831829514168 -0.013416626478707333394724
100.000000 0.038955421161383049777349 0.000864010988859537673416 -0.018461218744675739200645 -0.017863422987089191962262 -0.013299307461012311454285 -0.011883144131875630206130
102.000000 0.035766673340348477394546 0.003513740443799931272018 -0.013754822851041275527662 -0.013299948312189132856864 -0.011608547571909617196484 -0.010533822855353900532771
104.000000 0.032612283858067289687988 0.004499757256208850204893 -0.010682574577002848514873 -0.010331836892797097160468 -0.010146863872012542792667 -0.009323247089250724650711
106.000000 0.029834227381983300514401 0.004899879257658672389308 -0.008388661500273888668722 -0.008105270107670892523744 -0.008929956763504574845935 -0.008301755829688041432579
108.000000 0.027575776994538475639374 0.004837613180256768001530 -0.006838739315063516871485 -0.006598597303050217181830 -0.007969161932968964884294 -0.007485301708290458162776
110.000000 0.025216278912734629152892 0.004324494531730132054759 -0.005954953247259849556661 -0.005741337399574936509183 -0.007111386563955588747954 -0.006718312645906212784985
112.000000 0.022584680679474354592084 0.003636014245198827734423 -0.005185416067328508203660 -0.004994571136754183231232 -0.006286878159794199658061 -0.005978350093794701503036
114.000000 0.019436649173036391058389 0.002607042616554952011582 -0.004520810265558183188572 -0.004351575726808847369154 -0.005423705111482709367854 -0.005197888127602646665681
116.000000 0.016728284736843696683950 0.002033925507907637184740 -0.003694957405920470863009 -0.003549020923084034509487 -0.004610720355374697994322 -0.004466897661327935177555
118.000000 0.013985457319533513981247 0.001410652377990792398499 -0.002899851978642961972121 -0.002776721904789017369986 -0.003776960844088930041584 -0.003711235253328048436933
120.000000 0.011350666961454465228587 0.001056506177608023365477 -0.001972578422800038474433 -0.001874286006033207101218 -0.002934866008902446005147 -0.002948044461598112089135
122.000000 0.009006884386597194952495 0.000846168398499200224983 -0.001081158154382797593682 -0.001006200817352091020362 -0.002146756766030676055745 -0.002229570145218612471638
124.000000 0.006771244093111769210558 0.000748991374401574913633 -0.000173475252080579393993 -0.000122096721467606771517 -0.001374259773279174054114 -0.001523263430180406882014
126.000000 0.004703467782299368751819 0.000513588487287888685769 0.000479136214553124847523 0.000511290669774404631272 -0.000717935296516176687034 -0.000914857450923646010367
128.000000 0.002949722679592829167883 0.000366032997407463663204 0.001082911745069283599927 0.001098865285758366490063 -0.000163334399815775598453 -0.000404942641668825211235
130.000000 0.001321256730213865105208 0.000139923716761040597576 0.001538635874054250637574 0.001541614240557882169538 0.000318237944902498228091 0.000042569371612043747715
132.000000 0.000010492674350862087957 0.000001177920006281149000 0.001939067665013034054075 0.001930803055119850123594 0.000718351477781866906702 0.000413694715413804410195
134.000000 -0.001036779000901618666072 -0.000094018772098850803432 0.002283837701551326947180 0.002266785189366354088397 0.001043014836463454150794 0.000713207000837689500047
136.000000 -0.001932249029222367180114 -0.000207803622218813882931 0.002536506370841313823955 0.002512579424256886160421 0.001302482077547497058348 0.000953441606865472988941
138.000000 -0.002491136563298938441657 -0.000234265375925210659475 0.002752106676728147734851 0.002723028940372712591866 0.001486109166184694041837 0.001121058744353726306306
140.000000 -0.003028802901493888363044 -0.000342771641004145232075 0.002866310481048784091634 0.002833920295226719562182 0.001617080370998166122254 0.001241038738261224369172
142.000000 -0.003155113812695115385609 -0.000341963563278079268719 0.002947386802110783365211 0.002913296019412714172453 0.001667716253430146953682 0.001283830457139240651537
144.000000 -0.003263354414813100096149 -0.000345710350694574558052 0.003015754167561654919966 0.002980298593409801480303 0.001711891327175559538235 0.001321130852503261780828
146.000000 -0.003374671195272604604098 -0.000353318668363547755493 0.003079145882607501119588 0.003042441135085073664751 0.001755230268409369151147 0.001358007471915909179089
148.000000 -0.003483235792964940995969 -0.000362817293954943427634 0.003138042976291482294426 0.003100216988278048629163 0.001796656531340374684386 0.001393323587940290984519
150.000000 -0.003586630907553991966935 -0.000373309427941469370010 0.003192877128074787101975 0.003154054168278811343812 0.001835785040339824947600 0.001426640845368547152322
152.000000 -0.003683673669816919099551 -0.000384229719649501106921 0.003244133859757468082985 0.003204429318396527850976 0.001872512287684081205841 0.001457802291053326418022
154.000000 -0.003773936698296129124003 -0.000395224234562443100128 0.003292323407469983746754 0.003251841738109435657467 0.001906905627225714697573 0.001486822824038949763040
156.000000 -0.003857526945098178113719 -0.000406085512642928472653 0.003337965992100833806377 0.003296799597457098982001 0.001939151495775038062594 0.001513838121334971789991
158.000000 -0.003934929871005196123923 -0.000416718901629715174177 0.003381575338998491116194 0.003339804336253672512047 0.001969512591669564556540 0.001539062609350612181522
160.000000 -0.004006863009292597338495 -0.000427104372878714161257 0.003423645434925513906382 0.003381337939915148634723 0.001998293986281659152110 0.001562756059946333268146
162.000000 -0.004074161173472264953210 -0.000437268236267126023369 0.003464638675396933611972 0.003421851525347587106435 0.002025815881627860814279 0.001585196802836007397286
164.000000 -0.004137700041066513269306 -0.000447270424830173202093 0.003504978548879864909404 0.003461758360712940095494 0.002052393404492272588335 0.001606661699193589424445
166.000000 -0.004198333688975401309373 -0.000457182646721066769484 0.003545050462476111337307 0.003501434785982782214170 0.002078325199471260480155 0.001627414374247022682204
168.000000 -0.004256864252837717736699 -0.000467083067864168522115 0.003585200114070467673766 0.003541218569764778383024 0.002103886353607542676614 0.001647698165020889272264
170.000000 -0.004314020025627734317153 -0.000477048766425687391108 0.003625736971398900616859 0.003581412376569779662527 0.002129325173352505581881 0.001667732379571511486596
172.000000 -0.004370455609144985840986 -0.000487155759095174271944 0.003666934845040682993539 0.003622284294833849095652 0.002154863526086530159387 0.001687712410990039159711
174.000000 -0.004426747978150714912804 -0.000497476121191092052198 0.003709038760535861723594 0.003664074617802726748644 0.002180698589777783913402 0.001707810965616407723744
176.000000 -0.004483402507544849945054 -0.000508071762893594130669 0.003752274516357383387505 0.003707005075698393929684 0.002207006346787639908952 0.001728180838410062029886
178.000000 -0.004540870304493176135008 -0.000519012205010200124503 0.003796838738811282847746 0.003751269124915413300664 0.002233942942871111527608 0.001748956533758462420294
180.000000 -0.004599543885884301019917 -0.000530353879150242631980 0.003842919509770005050131 0.003797052140394197982526 0.002261649610232368667190 0.001770258151496603704622
182.000000 -0.004659775621157781141934 -0.000542151493478557002133 0.003890693552636400806555 0.003844528630169344058515 0.002290256245463952178287 0.001792194614664650983635
184.000000 -0.004721883034318821725783 -0.000554461548468994413000 0.003940326292729523852132 0.003893862326804800339658 0.002319881629106830198128 0.001814864307166597946763
186.000000 -0.004786158225781706257451 -0.000567338858832641635896 0.003991979860341062814888 0.003945213912457660142274 0.002350639198028116327865 0.001838359706859850730212
188.000000 -0.004852873611349538436610 -0.000580837720506813888662 0.004045814633674053341361 0.003998742655122805404744 0.002382637942915491729295 0.001862768355421075055708
190.000000 -0.004922289699294547446473 -0.000595012498428311984756 0.004101991750772025421834 0.004054608753135126655853 0.002415983838439925146524 0.001888174307362105877953
192.000000 -0.004994657009264041359897 -0.000609916623532957748871 0.004160677588299852187881 0.004112977812832650445496 0.002450783442031494521740 0.001914660880290748384489
194.000000 -0.005070228257509006714043 -0.000625613506616021393392 0.004222037705088418739485 0.004174014898012210796063 0.002487143765304441166142 0.001942311008198710107694
196.000000 -0.005149253903048690850230 -0.000642162675663729117306 0.004286249749469478453889 0.004237897153637355460165 0.002525175178872963045046 0.001971209388281152264516
198.000000 -0.005231991856991810053990 -0.000659630828547571397731 0.004353496103340650374980 0.004304806678642086534281 0.002564991015754692228051 0.002001442334471573679389
200.000000 -0.005318709200999474466520 -0.000678086854755075691369 0.004423971364212459303489 0.004374937782173173202172 0.002606710998267103025078 0.002033100573811265354696
202.000000 -0.005409681722085807331624 -0.000697604699462077665166 0.004497880081202207391833 0.004448494849245915663816 0.002650460054831248364604 0.002066278293986175199071
204.000000 -0.005505201805319616045753 -0.000718265653400024456712 0.004575439767062160038857 0.004525695301374037422815 0.002696370461568894667109 0.002101074825055914731264
206.000000 -0.005605578271934399427201 -0.000740153083572127204817 0.004656884344217037709213 0.004606772993607444882658 0.002744583078177841896361 0.002137595667849590246740
208.000000 -0.005711139393245097568841 -0.000763361811784241117707 0.004742459630132471459785 0.004691973784416246691376 0.002795247582480650354320 0.002175952791885398928534
210.000000 -0.005822234362539578135520 -0.000787989962923062474062 0.004832432474171025581222 0.004781564571246691743023 0.002848524360364633814524 0.002216265903447470729526
212.000000 -0.005939236958633336421753 -0.000814146223268384650051 0.004927085555982881580339 0.004875828155036148435497 0.002904584528321708415677 0.002258662635101460827713
214.000000 -0.006062547510527902666633 -0.000841945815371845755759 0.005026723473122210981978 0.004975069247315617136651 0.002963611021881303302788 0.002303279328247656142920
216.000000 -0.006192593938262930600147 -0.000871513007481075413149 0.005131671985066012242616 0.005079613764357298992536 0.003025800481445600331049 0.002350262543390715767877
218.000000 -0.006329834583144003899713 -0.000902981277996913324173 0.005242280371303499435232 0.005189811132132002291506 0.003091363364695943766886 0.002399769121459888535086
220.000000 -0.006474762880784035341819 -0.000936497160857436856257 0.005358921703183390852776 0.005306034632688130456279 0.003160525383378424892772 0.002451967322875661312032
222.000000 -0.006627905385527252390965 -0.000972214380344922331559 0.005481996745315726934922 0.005428685191916245850186 0.003233528242862921450035 0.002507037396588703438011
224.000000 -0.006789826282478867228165 -0.001010297869075837831968 0.005611934388806460831389 0.005558191813439403161645 0.003310630308682819492733 0.002565172116488417981828
226.000000 -0.006961131377334914792365 -0.001050927344428455485759 0.005749191483968578604558 0.005695011414420408403514 0.003392108871024486493884 0.002626578745639009809798
228.000000 -0.007142465314300959142169 -0.001094290525889778271929 0.005894256614905672014837 0.005839632519858035074323 0.003478259564336659472733 0.002691478488654322921009
230.000000 -0.007334516345094730695175 -0.001140587811171416910208 0.006047650139690349466171 0.005992575303789240276364 0.003569397837790516843370 0.002760107705403489018053
232.000000 -0.007538020120924251825378 -0.001190036190725290814185 0.006209922397403077991285 0.006154389850503659380176 0.003665860382445579063876 0.002832719289221514828714
234.000000 -0.007753762099237121972750 -0.001242864798849220272017 0.006381659801318008071180 0.006325662068076554067630 0.003768005868281353552829 0.002909583146561485911957
236.000000 -0.007982580498067203336743 -0.001299322231917240727181 0.006563480649118016291288 0.006507009744823534676261 0.003876216228134453638948 0.002990987225652342370447
238.000000 -0.008225372561819051242527 -0.001359676701144112154207 0.006756040443845863323336 0.006699087782348422427658 0.003990899784915968168120 0.003077239833784787149257
240.000000 -0.008483105416270845383631 -0.001424225500096160763538 0.006960032120173382207129 0.006902588719683784221348 0.004112493566519479816501 0.003168671270617824230892
242.000000 -0.008756828434616377096478 -0.001493301616633571290982 0.007176191660832006470605 0.007118248582808374240460 0.004241467453067601298122 0.003265636470106003316771
244.000000 -0.009047686212288214013810 -0.001567282411065698544128 0.007405307679209344011440 0.007346856869584008666030 0.004378331013449203619470 0.003368519358469208684059
246.000000 -0.009356950931881154870373 -0.001646611959129133618759 0.007648228449160887273961 0.007589264162959893054994 0.004523641693837325387928 0.003477738307728596260648
248.000000 -0.009686039464041701352315 -0.001731807218041632413438 0.007905886649686643882773 0.007846407487168359159990 0.004678016049409857400609 0.003593752731990681580782
250.000000 -0.010036553371304181986323 -0.001823481097002297313808 0.008179320100612799682160 0.008119331786489341132307 0.004842141910244268307451 0.003717070629563251193267
252.000000 -0.010410309641913157580051 -0.001922351915796288723826 0.008469707346040633577644 0.008409226109878360430616 0.005016793407902322456116 0.003848257848745718998767
254.000000 -0.010809374209408997152826 -0.002029258691224606562381 0.008778398591109091986251 0.008717455031837011147910 0.005202845220838419812437 0.003987947169306378311648
256.000000 -0.011236085317848183359746 -0.002145155616664152185835 0.009106957030767189736897 0.009045599872522139262010 0.005401284108970895794788 0.004136845742584328335101
258.000000 -0.011693062308872344962074 -0.002271101025008431719548 0.009457189425700224597038 0.009395488605537748866281 0.005613216623850210071356 0.004295741037755623770167
260.000000 -0.012183187544454524703363 -0.002408219182347012994605 0.009831170457456536379559 0.009769218483803345995375 0.005839867371712751178969 0.004465501441268197521661
262.000000 -0.012709562053036844650467 -0.002557647919064513428178 0.010231241230351451748648 0.010169151773473692618177 0.006082565671957701133876 0.004647070936539272022203
264.000000 -0.013275428687808730685016 -0.002720471303328070040300 0.010659970714459100771254 0.010597873443002095786292 0.006342718034054574058334 0.004841456320932412647762
266.000000 -0.013884060960210270821436 -0.002897633439248584272946 0.011120082635045920246841 0.011058113250694530729779 0.006621768123333319350232 0.005049707966429250495521
268.000000 -0.014538643617480626057947 -0.003089870253990895359458 0.011614332811291630878636 0.011552618466801660435106 0.006921147381959676450625 0.005272895788562746016703
270.000000 -0.015242156270498682241188 -0.003297657028534670565351 0.012145356029151942525712 0.012083996757183548126369 0.007242226738794514326325 0.005512086440721921873354
272.000000 -0.015997298066442310060520 -0.003521214394331322310866 0.012715497174527554818946 0.012654545742278621930921 0.007586280842530121124034 0.005768326776351312065727
274.000000 -0.016806475006991606485629 -0.003760566704781759771181 0.013326676056090159400158 0.013266119362111861157416 0.007954480466088084678056 0.006042642044891294653142
276.000000 -0.017671874685736360666155 -0.004015666288448406853751 0.013980313929033353140263 0.013920059878211462137121 0.008347918740980753496417 0.006336050978010830496412
278.000000 -0.018595621873238366711378 -0.004286567725008728207969 0.014677352338470702267093 0.014617226050456054789461 0.008767672942883162831573 0.006649597918931704314260
280.000000 -0.019580027308820503739728 -0.004573643015267741564200 0.015418378212325235462887 0.015358130317441971365855 0.009214901795132669076738 0.006984403176224915008041
282.000000 -0.020627904255985003018070 -0.004877821895261784911069 0.016203847119099515361462 0.016143175940127096890109 0.009690968493070590758509 0.007341725860057634819866
284.000000 -0.021742956957635759668301 -0.005200851111511064529813 0.017034395075813411890575 0.016972983232095954081453 0.010197586767297640159002 0.007723040015126104822218
286.000000 -0.022930232747349635347156 -0.005545566523687074644844 0.017911226622896226495785 0.017848791899482061018567 0.010736984931745366389499 0.008130120580358977250279
288.000000 -0.024196588321231136953227 -0.005916119209949626325806 0.018836608685886827713185 0.018772967234229803734635 0.011312083212227696041308 0.008565135933385373961935
290.000000 -0.025551029196208420446457 -0.006317998945666141764888 0.019814523950817012482029 0.019749659340845292232469 0.011926655186690313797948 0.009030725543486443213093
292.000000 -0.027004486656209168021769 -0.006757420357840908040070 0.020851600341130465537942 0.020785719015376853679999 0.012585390161538541342612 0.009530008652018386733351
294.000000 -0.028568149264738811748954 -0.007239247916769481379362 0.021958327287434201147143 0.021891852713745874742246 0.013293599479842032121124 0.010066364779325921025022
296.000000 -0.030249215060286348266683 -0.007762675473319101925040 0.023149768406634890077767 0.023083188135753711367482 0.014056000128097878576483 0.010642663793542943284631
298.000000 -0.032044186342329361583126 -0.008315600647517034163525 0.024443162020467555650693 0.024376639280742268267588 0.014873923315278697945829 0.011259632307313024307538
300.000000 -0.033933004934933466700819 -0.008871690041868881410059 0.025849773910834056983576 0.025782537471583030774802 0.015741756487752844168027 0.011913956437733306051308
302.000000 -0.035879144059647961884085 -0.009394333938130435684988 0.027363940785213959616673 0.027293637175581610815334 0.016646078892346000827063 0.012598176977799397865954
304.000000 -0.037837375038407235205984 -0.009847176939374474927136 0.028956820922501850384956 0.028879110466034755427822 0.017569680069313697856614 0.013303414835346678499195
306.000000 -0.039764886604142839210407 -0.010205705898810842405244 0.030579050977626774654450 0.030487720418142502665226 0.018496906833480257492663 0.014022359748389626177278
308.000000 -0.041629296555606640217739 -0.010462392449840670835548 0.032172530155011237751328 0.032060224294506889375356 0.019416000261318979575043 0.014749794732989535486767
310.000000 -0.043409709182078703992858 -0.010622283878897641890005 0.033685723393332693553770 0.033544984153454110442638 0.020318710988909589876261 0.015481532941632075370264
312.000000 -0.045092022352886597380550 -0.010693800589448253929303 0.035083340102891338863067 0.034907409423386229208042 0.021199337282055800979474 0.016213719554424129570824
314.000000 -0.046663076355897968594544 -0.010681887579661104858975 0.036347781247124719139485 0.036130913410258848339485 0.022053913031418102136394 0.016942654110382118076705
316.000000 -0.048107368258282261208603 -0.010586774659390243980006 0.037475324878970789344024 0.037212760345614472046183 0.022879253515883615777149 0.017664471445708554431242
318.000000 -0.049407283507882072959294 -0.010406772867932069862040 0.038470352842893906775146 0.038158228223078322072226 0.023671862311611297641223 0.018374572585485138276340
320.000000 -0.050545740650634891910631 -0.010141564692749805917660 0.039340176511503524570124 0.038975529445036127818014 0.024426901063664477331550 0.019066887968712611239885
322.000000 -0.051508704848268589693294 -0.009793900084451094903426 0.040091386330763909007224 0.039672263256473820625114 0.025137015330241971322600 0.019732802658100418585763
324.000000 -0.052285313721335921477440 -0.009368499611951025193846 0.040728743414768328601205 0.040254303801677028540329 0.025791212974939393964835 0.020360057187873325384997
326.000000 -0.052866681102362304833786 -0.008869406971912350765019 0.041256161539278572714107 0.040726667139732074252034 0.026374397734270655507816 0.020932360980834136682249
328.000000 -0.053246173465914939382237 -0.008298964122957887615262 0.041677299299708404911602 0.041093977037804915730668 0.026867939810802255601319 0.021430177920311370420858
330.000000 -0.053421254225994425912649 -0.007659401072917088743042 0.041994427825656953368050 0.041359283810461021368976 0.027251513156929058068201 0.021832757876878453040526
332.000000 -0.053394709890160221843480 -0.006955304179031011196921 0.042206449578147543777451 0.041522121950184016914154 0.027505998238409882367117 0.022121072287407811396420
334.000000 -0.053174792351426074243914 -0.006195890226541277828742 0.042306565965309822496820 0.041576273059751728267130 0.027616551558732264914919 0.022280974903067296555292
336.000000 -0.052774338130920195322204 -0.005396166020216399718257 0.042279999430870414400818 0.041507595986489217998461 0.027574314810594861141491 0.022305250160274837228913
338.000000 -0.052206807741104657716313 -0.004575022660238579723380 0.042103788520609565504405 0.041293878380856914589447 0.027375466224178565677327 0.022192902950148630375482
340.000000 -0.051479794191177846718332 -0.003750558775533659183754 0.041751125275132534853118 0.040909130184357329895750 0.027019293298158594818226 0.021946710732564895379726
342.000000 -0.050592604735093901768828 -0.002936602310137068766460 0.041199680299189481158528 0.040331792626775900267866 0.026508744947778689615703 0.021572288306574635696755
344.000000 -0.049540795742914568722259 -0.002141555226297874817837 0.040441228385511188148094 0.039554237025007273065302 0.025853216162220152285478 0.021079185423791696463169
346.000000 -0.048321526902144591730792 -0.001367260522837691243472 0.039487677866081906385975 0.038588688665105327912919 0.025069212843958705444480 0.020481029573672551724606
348.000000 -0.046935405093290007150220 -0.000608041007102218364518 0.038370236022991895119549 0.037466345755409032058925 0.024177130827548673486227 0.019793266322768059140014
350.000000 -0.045387480758598629237976 0.000145801636725166551458 0.037130312267715771812338 0.036228348826925410586242 0.023196749061196914737382 0.019030289916182430848268
352.000000 -0.043688267650130632735461 0.000900874335772660185875 0.035805876516497602002342 0.034912275409051791996706 0.022143950963926534863946 0.018203633208726650860587
354.000000 -0.041853352429025852954325 0.001656322624128930397908 0.034422126657625229384507 0.033542918295648552207133 0.021029808414301180696793 0.017321715665761877600559
356.000000 -0.039903261876200211977217 0.002403017468997507843920 0.032990178389174423800867 0.032131039995195599667799 0.019862407943166238144528 0.016391316829566713458854
358.000000 -0.037863040891594375303431 0.003123539349519219819606 0.031509924660663386764003 0.030676277936156626235942 0.018650208342918236925634 0.015420016552880262336589
360.000000 -0.035759720033191340349266 0.003792549644504653299365 0.029973189313395272315166 0.029170329524348153488189 0.017404460080297320945242 0.014417878300416547832086
362.000000 -0.033620482662933139084149 0.004376494359357111646469 0.028365543227853964869389 0.027598773072552131024882 0.016139134167508766698473 0.013397309657602848517732
364.000000 -0.031474808341458090921172 0.004830462419476885295444 0.026666131927254779071523 0.025940881035163433632196 0.014869668499992567262113 0.012372165035415499598215
366.000000 -0.029359194229392635011600 0.005095271396116587622749 0.024848102761072105026940 0.024169978449488115079813 0.013612307600609260815894 0.011357311558600192286095
368.000000 -0.027317947418497037781471 0.005104915562543775250925 0.022885388407310608416267 0.022260003651046224304455 0.012383539762725844987634 0.010367927491829298514148
370.000000 -0.025392876106266185076699 0.004812188654601098382335 0.020769142814343843211899 0.020201567611628237775001 0.011198722038025058292399 0.009417663826256049419694
372.000000 -0.023605253838968581758806 0.004219977993296574955706 0.018525378636702428958305 0.018019317322729249547519 0.010070562067685476931311 0.008516603107775508330057
374.000000 -0.021944837765022134207227 0.003393239990678348100978 0.016219561377619214070922 0.015776608665034788647752 0.009008616037172397644772 0.007670586898323580524184
376.000000 -0.020375350661499758153639 0.002444149100698387189895 0.013945135323513799946449 0.013564375748991639586416 0.008019723268990631287467 0.006882072106166943654959
378.000000 -0.018853816548502152355971 0.001499098732355985024237 0.011800854382144490908879 0.011478896319697657821268 0.007108480873160653509824 0.006151624257620991013951
380.000000 -0.017350822836415223660023 0.000662634249520963948023 0.009865731325055332456841 0.009597161450950715891328 0.006277200208023823134462 0.005479004199127199964403
382.000000 -0.015857039085460693933483 -0.000002931330563770441060 0.008184538996223081341874 0.007962656240169037683008 0.005525600747486590288982 0.004863307285811532300335
384.000000 -0.014375451231255274506249 -0.000475852009713164053693 0.006768491236709423507223 0.006586123242167913477418 0.004850460989946783416094 0.004302307490822214475212
386.000000 -0.012913004364295084178127 -0.000763879551147168128766 0.005602926060844943059736 0.005453172282038171517216 0.004245605954646698015909 0.003791968885746567399092
388.000000 -0.011478002533911900104324 -0.000893724786179775397901 0.004655985761762376773376 0.004532763978404285958035 0.003702765942187266796914 0.003326862226886306925927
390.000000 -0.010080783603644866142091 -0.000901715290112915985633 0.003887964505208277819770 0.003786264098346309083659 0.003213232990630372331448 0.002901328085725902398290
392.000000 -0.008734685153409534053015 -0.000826100843403380739882 0.003259594745596226458839 0.003175460700445918889312 0.002769459164453742447409 0.002510624770807906580572
394.000000 -0.007455879856299743244086 -0.000702224099246209548450 0.002736938570217237534643 0.002667311480009054974055 0.002365833203365640645399 0.002151458038288535726257
396.000000 -0.006261215499190007569008 -0.000559605562296277376719 0.002293245548957601343681 0.002235770082358078895274 0.001998619125158301347567 0.001821864627721160936891
398.000000 -0.005165317153026868952914 -0.000419976609266633528483 0.001909393871052528397769 0.001862238153721027010892 0.001665626165829034444066 0.001520926388899282270806
400.000000 -0.004178986961376080291886 -0.000296555545662698072894 0.001573481457224081133880 0.001535173560704938561933 0.001366005998370977249715 0.001248651924616549918623
402.000000 -0.003309526915990133270201 -0.000195366802353723811522 0.001279275098683163927604 0.001248567034681367492882 0.001099991686161767628568 0.001005836312751181042466
404.000000 -0.002561548727398058316468 -0.000117759467143884361288 0.001023878276444157046574 0.000999650077427278278483 0.000868305581180364239105 0.000793611061950962319751
406.000000 -0.001936833973476244927583 -0.000062549976901074438884 0.000805797579269173125556 0.000787006836833587159787 0.000671474249899164433476 0.000612845036742723763695
408.000000 -0.001433084060885668085603 -0.000026949411134844772006 0.000623865404014989030114 0.000609532466883004890763 0.000509257898493756873577 0.000463615492507755077266
410.000000 -0.001042603529590559793133 -0.000006887649906202314991 0.000476645083963662290812 0.000465857871720578664652 0.000380235587164594215741 0.000344822562226464982178
412.000000 -0.000751819422032168902317 0.000002415312699835905889 0.000361734789557226731060 0.000353670775752515224345 0.000281485263234519406811 0.000253896225115385137331
414.000000 -0.000542603720222485934495 0.000005411334646159827357 0.000275218424838440502492 0.000269175319700762144190 0.000208586555182002988951 0.000186817219880600716769
416.000000 -0.000395614745723940847231 0.000005393515361001051418 0.000211965867433491864666 0.000207381877601580571005 0.000156236325686588022662 0.000138708340167705880281
418.000000 -0.000293843414276961760207 0.000004215695985550532747 0.000166601484548768892513 0.000163052446281852168311 0.000119297255414902098405 0.000104825757364766686025
420.000000 -0.000224102434682571678964 0.000002683804449588664581 0.000134339504935099079107 0.000131518113837959360179 0.000093486112923536792405 0.000081215626470104932268
422.000000 -0.000176678746790975729590 0.000001189117452954985356 0.000111477255582991202978 0.000109164983238323537386 0.000075551356298925932578 0.000064874154019932024086
424.000000 -0.000144557116536834319226 -0.000000082275766975811588 0.000095250944043235279005 0.000093295038405252712953 0.000063108177680236795170 0.000053598422148045155619
426.000000 -0.000122729409095728670895 -0.000001049774797688433909 0.000083650951909949465470 0.000081945834992173293343 0.000054428649327515409386 0.000045791976902686622631
428.000000 -0.000107655443328766883913 -0.000001712663551140356061 0.000075204034361929934490 0.000073678569484939248875 0.000048283024434254470235 0.000040319483156204204664
430.000000 -0.000096937158851834000412 -0.000002116199034414140931 0.000068880948473936154971 0.000067487611150487055735 0.000043807266771360152163 0.000036380581629900418498
432.000000 -0.000088989531537601515576 -0.000002318868417608341220 0.000063964886003484256274 0.000062672535080356283504 0.000040415433677442222610 0.000033434614947224556203
434.000000 -0.000082800044110076654984 -0.000002389682473715080903 0.000059969975228527708764 0.000058758808969903870967 0.000037722879770539414514 0.000031126797842078651540
436.000000 -0.000077737778657120624732 -0.000002366383328915526142 0.000056588828828755174927 0.000055445598546943598395 0.000035486511437942430572 0.000029232328583417616541
438.000000 -0.000073407356446541686219 -0.000002289194760781167329 0.000053630592164021336160 0.000052546466565460177441 0.000033555896307917812166 0.000027612216193078788744
440.000000 -0.000069578459348564817687 -0.000002174976802476189910 0.000050967391316308900586 0.000049936248520445702351 0.000031828635536333982358 0.000026173506923537497482
442.000000 -0.000066102886152331918369 -0.000002050877178689309204 0.000048501773626903724223 0.000047519459440117722219 0.000030247071355273151197 0.000024863089284850755343
444.000000 -0.000062883316652055719180 -0.000001905277136679622667 0.000046207905772075690400 0.000045271041153048248266 0.000028779634501524834557 0.000023651503121361569819
446.000000 -0.000059890913632163533050 -0.000001782461151309434351 0.000044033567114523781917 0.000043139810452405545919 0.000027403468538484789446 0.000022518901169271702742
448.000000 -0.000057051146248608289129 -0.000001667511487396921097 0.000041953651844820839866 0.000041101246759626050022 0.000026096121883786133587 0.000021445281070374906570
450.000000 -0.000054379469506672075058 -0.000001557898479521959101 0.000039992133359872508226 0.000039179088928761231377 0.000024862171837420113905 0.000020432238126686497583
452.000000 -0.000051833669801185635543 -0.000001466715822202370867 0.000038111136014762463109 0.000037335959245717980628 0.000023687247384436041465 0.000019467962763782185290
454.000000 -0.000049422233632267831066 -0.000001412071002396598454 0.000036290744597744694830 0.000035552505020258509910 0.000022565599843861818707 0.000018548733043637458015
456.000000 -0.000047120445528468511199 -0.000001382510033753782849 0.000034533196206903998436 0.000033830677204150537483 0.000021491148516904901570 0.000017668987189260859628
458.000000 -0.000044919210652797825667 -0.000001333577138101319860 0.000032876890929933670735 0.000032207788162547588398 0.000020473668487515392329 0.000016834772185511613358
460.000000 -0.000042812790074287246313 -0.000001302825626329052013 0.000031278448079155106822 0.000030642004084610466666 0.000019496047278899180489 0.000016034500678745681736
462.000000 -0.000040816950906533036418 -0.000001278252602792370010 0.000029754945567102610569 0.000029149163963959002425 0.000018569154000742365954 0.000015275183735730154112
464.000000 -0.000038893338401241011183 -0.000001240179441369257517 0.000028310113176046867761 0.000027733786508399641251 0.000017681051603696944523 0.000014546404160785087760
466.000000 -0.000037050361958549334388 -0.000001202319841615789552 0.000026936768367125053705 0.000026388311877388659409 0.000016831805153488499881 0.000013849446055622164126
468.000000 -0.000035291481308458696662 -0.000001136383985470893850 0.000025660330579294469999 0.000025137948763309540866 0.000016028816094392259157 0.000013188915436184062518
470.000000 -0.000033590304419603926990 -0.000001075369699941450433 0.000024424036033840670895 0.000023926923154731675016 0.000015253265585282769375 0.000012551295103877505941
472.000000 -0.000031974358832171213916 -0.000001010082727053232416 0.000023255979962521462843 0.000022782527003610015127 0.000014520725477887216757 0.000011948902722901123187
474.000000 -0.000030432648289176125208 -0.000000954140331591953821 0.000022135881767548951608 0.000021685185408648097020 0.000013827838292694639410 0.000011378942159871194303
476.000000 -0.000028965148089360023880 -0.000000915217231613100526 0.000021054973920559490094 0.000020626127935314847206 0.000013159054674271919222 0.000010830041004259344283
478.000000 -0.000027571062802554109183 -0.000000878884357169997152 0.000020029453204442938422 0.000019621427056959308622 0.000012521786653260216023 0.000010306220183975323444
480.000000 -0.000026236122843789205376 -0.000000834362564982857696 0.000019054349969057959223 0.000018666104337341010228 0.000011913263491199432799 0.000009805985188694425414
482.000000 -0.000024955069197156858762 -0.000000772614565427364991 0.000018153050925454612387 0.000017783226950162017900 0.000011331669890297293432 0.000009325666793017041092
484.000000 -0.000023744818607783723497 -0.000000740266138587239807 0.000017277764496979821398 0.000016926267879610004430 0.000010785270270151098648 0.000008875067167558775739
486.000000 -0.000022582581558003910556 -0.000000697633671572276909 0.000016436811030225284823 0.000016102221800952126079 0.000010265696423931121371 0.000008447479959847973842
488.000000 -0.000021481749300638354721 -0.000000661743900623602339 0.000015633887077334864273 0.000015315463515634584427 0.000009758300307298946487 0.000008029817763636484199
490.000000 -0.000020436767901609001512 -0.000000608831990594954141 0.000014892363030605650434 0.000014589170771077151963 0.000009286937846946712881 0.000007641014600196467392
492.000000 -0.000019451929818519678866 -0.000000586623821614563311 0.000014166315520418206185 0.000013878256851870489867 0.000008832292664524923027 0.000007266652867939277000
494.000000 -0.000018499309536557369629 -0.000000566799635414784907 0.000013463331376053529746 0.000013189848001706424067 0.000008400993016396844025 0.000006912592942220697524
496.000000 -0.000017594263899911405608 -0.000000534467636813113137 0.000012810550646270303158 0.000012550541565588064751 0.000007995752365345809310 0.000006578874092846428439
498.000000 -0.000016759405068938189960 -0.000000511926739312988767 0.000012198932937971212790 0.000011951141256806647648 0.000007616258439524852045 0.000006266259252592527958
500.000000 -0.000015948628648300777820 -0.000000514116228132564656 0.000011583281149564184754 0.000011348340363191599097 0.000007251540435508073422 0.000005966485263144518195
502.000000 -0.000015182507678949185983 -0.000000487240293829765563 0.000011025446125901639319 0.000010801797514672017040 0.000006897707745267474028 0.000005675794047335547066
504.000000 -0.000014468420978673840872 -0.000000476236724143923136 0.000010494351027829198000 0.000010281635671244134658 0.000006564672279581753175 0.000005402096590305860247
506.000000 -0.000013758035210609028401 -0.000000457005686781731321 0.000009974345490410394240 0.000009772437470447341390 0.000006243357976849022032 0.000005137430303465048676
508.000000 -0.000013097889501423757371 -0.000000437378913675495425 0.000009503430840356333627 0.000009311289893043856589 0.000005951519804582457920 0.000004896396321848590567
510.000000 -0.000012477373759414456142 -0.000000424651245190457526 0.000009042392054927109960 0.000008859887095821370349 0.000005667270305248050315 0.000004662076527416797691
512.000000 -0.000011879850731608537762 -0.000000408708396002460277 0.000008601939911188428626 0.000008428581066881776334 0.000005391072174992663326 0.000004434139341455507126
514.000000 -0.000011306670646528652028 -0.000000389690559226839877 0.000008191176903843292654 0.000008025662667489759825 0.000005127348587402126543 0.000004217448067474106825
516.000000 -0.000010750602385884734918 -0.000000348042808842085646 0.000007815488929637645488 0.000007657569146741508581 0.000004882593119332864235 0.000004016734825804254847
518.000000 -0.000010263072235760038658 -0.000000348213650614052960 0.000007447375406165098565 0.000007297010178597997686 0.000004658000716985180391 0.000003831321460139422028
518.780000 -0.000025489998280486069441 -0.000019608846291593358949 -0.000009526971142164665895 -0.000009409176982574411359 -0.000002769770257813683286 -0.000003379838011418642381
520.000000 -0.000009775268587437020620 -0.000000317571753666785299 0.000007114972167208661488 0.000006971395066852913439 0.000004449251253646159083 0.000003658148924078818730
522.000000 -0.000009323278463513044964 -0.000000317878617067148429 0.000006768960442433521819 0.000006632345043478294126 0.000004240892178634966098 0.000003487257441711446837
524.000000 -0.000008849610941928065760 -0.000000296955296941086655 0.000006439446039318837130 0.000006309873765513395934 0.000004032264185505403719 0.000003315928529644338312
526.000000 -0.000008440209084525448859 -0.000000314303586223703294 0.000006112047271910200582 0.000005989292417397168142 0.000003839091196591715246 0.000003157506199294090671
528.000000 -0.000008024646324138490853 -0.000000268634361981162237 0.000005836612601605311366 0.000005719221076503855036 0.000003661747415379256219 0.000003011102445146390731
530.000000 -0.000007629303133629977566 -0.000000243448209207869549 0.000005560903246868814090 0.000005448973224701699150 0.000003484768048012988194 0.000002865093938792764955
532.000000 -0.000007280164393197787372 -0.000000238042331991516457 0.000005301553753355490031 0.000005194788479532261991 0.000003321030720797377015 0.000002730060466057223719
534.000000 -0.000006947170568653041352 -0.000000244474343442232192 0.000005039778414814681641 0.000004938174017785160241 0.000003165091397731980052 0.000002602318655176385787
536.000000 -0.000006611901505428804520 -0.000000218542928367815326 0.000004822576076138351220 0.000004725763207146221365 0.000003014244853331197769 0.000002477427837558355925
538.000000 -0.000006298622295721437671 -0.000000197542310441411973 0.000004611168320488430813 0.000004518902325020468461 0.000002873780930085832370 0.000002360536308341082897
538.720000 -0.000006195284631606143179 -0.000000193920570683027419 0.000004531783629525394395 0.000004440955605299947200 0.000002826533382099833982 0.000002321773312556477050
