0.000000 -0.000000000000000000000000 -0.000000000000000000000000 -0.000000000000000000000000 -0.000000000000000000000000 -0.000000000000000000000000 -0.000000000000000000000000
2.000000 0.000061874149098355092549 -0.000333019149902685524401 -0.001058346915745827414648 -0.002117209727550736341611 -0.000652718212157530415680 -0.000357152628406420932696
4.000000 0.000602514104868956791930 -0.000378343676818695983689 -0.002129712681656556038517 -0.003972600602684433351852 -0.000847705696310399343246 -0.000388182398648613785196
6.000000 0.001523539913119870484182 0.000268169912722379568792 -0.002454117694883157108771 -0.005185755419188658836560 -0.001073293752349919897085 -0.000519419351475489902287
8.000000 0.002984984399088190434174 0.001306752073965550048004 -0.002888659460570397376905 -0.007223849668088461357940 -0.001523275465800804761435 -0.000787650041632736953520
10.000000 0.005258359069540340276216 0.002889464663843093351209 -0.003719823205592413025572 -0.010678126303967777621651 -0.002246364871387035271055 -0.001168073443899836534599
12.000000 0.007598901759671256375683 0.004212907069498124379425 -0.005324406998552575973060 -0.015232612641034069117518 -0.003069176068009105140533 -0.001598449787235275282304
14.000000 0.010613419670662007504580 0.005603335378033961859667 -0.008014063850056889551365 -0.021916592278979588059862 -0.004391502289622176320727 -0.002376982273442228201649
16.000000 0.014268066445938748856848 0.007445499675706042722045 -0.011227262108978104324097 -0.030111227722060818212668 -0.006087566568601917270376 -0.003416380867147513628046
18.000000 0.018391409284713524513455 0.009371313191542636825138 -0.014841833342521563651739 -0.038852403790249630255449 -0.007981522223352372630290 -0.004638509405943944986783
20.000000 0.022567672112309068721547 0.010849366821747651740138 -0.018987074414436446584409 -0.047802344389649684130994 -0.009853197024796821884562 -0.005837710030460932682239
22.000000 0.026444238898370935053617 0.012016267854540676682240 -0.022998033305832703970806 -0.055353732085201154400345 -0.011563724370182026576770 -0.007045781667699571940156
24.000000 0.029998498937051663870701 0.012580443928267081438177 -0.027124450727305533109801 -0.062237245605488121513726 -0.013321692856638998880836 -0.008363585081428617090671
26.000000 0.033534697354416984071968 0.013037548229052257561800 -0.030600302369064889124184 -0.067498119861643571248955 -0.014966792409789531764774 -0.009756384254237531958309
28.000000 0.037246833205437437919194 0.014405931109817946694784 -0.032741562993254161306744 -0.071310695718874272941434 -0.016365698744182845258965 -0.011016321286518708857938
30.000000 0.040702787997966671795780 0.014632057939746451191709 -0.035820728726209331849173 -0.075502242280917078454117 -0.018036920469013513479428 -0.012564706540130055403837
32.000000 0.044371290231919970070695 0.015538444391915604350651 -0.038381457263770055177154 -0.079135517309720640466431 -0.019481595890929574027561 -0.013924316832570586208173
34.000000 0.047800710972152729572038 0.015620093477575376639255 -0.041092340515252220867204 -0.082526556503589226787554 -0.021178269772643330826067 -0.015554706477050601887147
36.000000 0.051306713545986100399876 0.015684969406581095174857 -0.044021008615528954555085 -0.085841485815215723409466 -0.022920875434896150618647 -0.017250526234545815462695
38.000000 0.054787349208607283301831 0.015844973132673717541863 -0.046537213456095655184086 -0.088517498914537862120255 -0.024606041246925416249303 -0.018919392734540269040977
40.000000 0.057868412529925153386934 0.015734165915416886000200 -0.048965524801378237929050 -0.090876323060096450556777 -0.026553839525811119559595 -0.020942934677556524630804
42.000000 0.061140714239308238675541 0.016137688718232571366551 -0.050854121073948217734984 -0.092723476675557345294543 -0.028758998509617956368389 -0.023284529468242540217737
44.000000 0.063562492306759005300520 0.015932474611229600208739 -0.053021373557295796430378 -0.094461821161673426017202 -0.030755733185518403099978 -0.025463245628652618479659
46.000000 0.065393099444447974621930 0.015133604508813758640628 -0.055339340728197752850015 -0.096344250083978025256393 -0.033006592163705557319009 -0.027861056302758788888463
48.000000 0.067412661150251837471892 0.014840507975786423194853 -0.057591923581181918290195 -0.098222948140755633739118 -0.035338284443632655973389 -0.030318072891277504654628
50.000000 0.069418176957194918652583 0.014072429049154722840997 -0.059964831511989634404980 -0.099949720494538707438181 -0.037580034847813720277898 -0.032697307083031999785927
52.000000 0.070675356926773166832412 0.013902296127662147964821 -0.061399199993276143416665 -0.100753471527721433220748 -0.039431445570730111471747 -0.034724121469564307729261
54.000000 0.071319865592015418975791 0.012393982595731640669601 -0.063999960478764675309016 -0.102435887341761830415798 -0.041328929337127590093459 -0.036657232533077024894119
56.000000 0.072022200599974911527923 0.011675738053995524806661 -0.065682424276590808953635 -0.103186388251630858925445 -0.042523695174684190967174 -0.037897389148065264985465
58.000000 0.073257087748934260340583 0.009903140820673568545107 -0.068798987448134174549352 -0.105140986771204120175938 -0.043786652930284962470520 -0.039035127082282440602601
60.000000 0.075135689977326419741743 0.009112627405256883486584 -0.070471098703778919936092 -0.105775468400982855521342 -0.044591275274363448288817 -0.039826148829720069144411
62.000000 0.076125837094600995458293 0.007110464969943384658246 -0.072490812592465703190214 -0.105743398524649839798073 -0.045136528365371061943812 -0.040427483647404782729495
64.000000 0.077026176024890369298248 0.006573959489010324300229 -0.071973899619992121046153 -0.103096268241923194608489 -0.044812084640165332494188 -0.040389437163894356674909
66.000000 0.076602063723802099604043 0.004462498025235480877959 -0.072020711282156008037347 -0.100185112141660120910203 -0.044023245293875974681885 -0.039894125031746323351012
68.000000 0.075919283682685356762221 0.003560233669506327434939 -0.070277604756927222751095 -0.095970382114052454891606 -0.042988111495693544228391 -0.039218253407345346484014
70.000000 0.075644674143903370411302 0.002457215255867059751360 -0.068306386500240956483054 -0.091337091104985251854842 -0.041811861368202564437357 -0.038414382355695261828110
72.000000 0.075133543645082290218795 0.001673264297172359898330 -0.065830611562153348859106 -0.086590004636101738921816 -0.040616198664255587225114 -0.037556626182325726637234
74.000000 0.072826531926266396821390 -0.000496100989547162496765 -0.064355861901430097549159 -0.082655566211779038510166 -0.039337802810877800507861 -0.036542074093020668335008
76.000000 0.071220875841401673489450 -0.002823354112066605269005 -0.063484531130951316058031 -0.079460646871178486350118 -0.038212642115365430539597 -0.035617097222096057163032
78.000000 0.068663487156762445517977 -0.004852822129233509869384 -0.061824200117456262759674 -0.075706810137568761320814 -0.036806363543676480498679 -0.034418416245457800206609
80.000000 0.065918861794779820550971 -0.007377451260437469481024 -0.060521263868409544417482 -0.072310041777679717744931 -0.035480857613288341312341 -0.033263063322640576413569
82.000000 0.062969125994944571966805 -0.009773140649219726194818 -0.059113240415991523402095 -0.068765172733255566783761 -0.033627121132983578410958 -0.031621515502779147521739
84.000000 0.059856317486401459937451 -0.012427354081629459967018 -0.057746047799611142925524 -0.065314934192401363777236 -0.031638203887520637003217 -0.029819077695407265882199
86.000000 0.055600318741380473641644 -0.015283014564342958796495 -0.055734881588633509996722 -0.060966305796537938188617 -0.028743212232792962612660 -0.027049124129563655721809
88.000000 0.051396695630395637655052 -0.017762274185727039421678 -0.053390109943396830971540 -0.056621572080458572318040 -0.026068864794778576904344 -0.024518349893303176267878
90.000000 0.046785456744381510862940 -0.020776351431436031191868 -0.051364555814239772069119 -0.052582041657932621081528 -0.023593213938807432866751 -0.022193890836987827108739
92.000000 0.043685356795238675098325 -0.020001004605213212189652 -0.046724132842178238422814 -0.047227119078180959665936 -0.021283503619812637469577 -0.020147425410017641422833
94.000000 0.041749402165156442034988 -0.016942372305333713855546 -0.041054023963329980273507 -0.041617924282003296299060 -0.019238956978483837123584 -0.018397910596809660677131
96.000000 0.040633257914813647460051 -0.012766647217163374847249 -0.035021152132330882200684 -0.036014585247616172358764 -0.017308105118987643367134 -0.016764797821090780122200
98.000000 0.040438188862380965160614 -0.005679219342274104999346 -0.026522443121958561018658 -0.028728843692200346088272 -0.015357994792831829514168 -0.015232141071012601438173
100.000000 0.038955421161383049777349 0.000864010988859537673416 -0.018461218744675739200645 -0.021819142107837651706204 -0.013299307461012311454285 -0.013509861115545727244802
102.000000 0.035766673340348477394546 0.003513740443799931272018 -0.013754822851041275527662 -0.017349917144200682067590 -0.011608547571909617196484 -0.011981362614444976411043
104.000000 0.032612283858067289687988 0.004499757256208850204893 -0.010682574577002848514873 -0.014117596297723515597067 -0.010146863872012542792667 -0.010603292306398264671641
106.000000 0.029834227381983300514401 0.004899879257658672389308 -0.008388661500273888668722 -0.011541324539617762306998 -0.008929956763504574845935 -0.009444192679247885927052
108.000000 0.027575776994538475639374 0.004837613180256768001530 -0.006838739315063516871485 -0.009638814337244016455797 -0.007969161932968964884294 -0.008518343259694026101125
110.000000 0.025216278912734629152892 0.004324494531730132054759 -0.005954953247259849556661 -0.008311206631939625430472 -0.007111386563955588747954 -0.007648445805135235635308
112.000000 0.022584680679474354592084 0.003636014245198827734423 -0.005185416067328508203660 -0.007069425596836586937755 -0.006286878159794199658061 -0.006810175761800916528765
114.000000 0.019436649173036391058389 0.002607042616554952011582 -0.004520810265558183188572 -0.005847462889033584049203 -0.005423705111482709367854 -0.005925015412496990180324
116.000000 0.016728284736843696683950 0.002033925507907637184740 -0.003694957405920470863009 -0.004598722048369178853899 -0.004610720355374697994322 -0.005097604332396261060667
118.000000 0.013985457319533513981247 0.001410652377990792398499 -0.002899851978642961972121 -0.003373499725453478394893 -0.003776960844088930041584 -0.004240623717508865478387
120.000000 0.011350666961454465228587 0.001056506177608023365477 -0.001972578422800038474433 -0.002082368286742083875879 -0.002934866008902446005147 -0.003376690440746613584844
122.000000 0.009006884386597194952495 0.000846168398499200224983 -0.001081158154382797593682 -0.000886195740486026548900 -0.002146756766030676055745 -0.002563058203473644186543
124.000000 0.006771244093111769210558 0.000748991374401574913633 -0.000173475252080579393993 0.000290357171885546525274 -0.001374259773279174054114 -0.001763476379827057542379
126.000000 0.004703467782299368751819 0.000513588487287888685769 0.000479136214553124847523 0.001200129034190243167493 -0.000717935296516176687034 -0.001072733345728598504040
128.000000 0.002949722679592829167883 0.000366032997407463663204 0.001082911745069283599927 0.002014636901269238698081 -0.000163334399815775598453 -0.000495099382378781996406
130.000000 0.001321256730213865105208 0.000139923716761040597576 0.001538635874054250637574 0.002675968511261395555573 0.000318237944902498228091 0.000012430883746748728818
132.000000 0.000010492674350862087957 0.000001177920006281149000 0.001939067665013034054075 0.003234931372956373167582 0.000718351477781866906702 0.000433401233624276370927
134.000000 -0.001036779000901618666072 -0.000094018772098850803432 0.002283837701551326947180 0.003709034806985927676393 0.001043014836463454150794 0.000772428614028195935533
136.000000 -0.001932249029222367180114 -0.000207803622218813882931 0.002536506370841313823955 0.004074471008471685674890 0.001302482077547497058348 0.001044665173074917205107
138.000000 -0.002491136563298938441657 -0.000234265375925210659475 0.002752106676728147734851 0.004361607442675746737493 0.001486109166184694041837 0.001234103601714534384493
140.000000 -0.003028802901493888363044 -0.000342771641004145232075 0.002866310481048784091634 0.004549731266802428675255 0.001617080370998166122254 0.001370017143536082174921
142.000000 -0.003155113812695115385609 -0.000341963563278079268719 0.002947386802110783365211 0.004656913328571982493842 0.001667716253430146953682 0.001418070202193885990735
144.000000 -0.003263354414813100096149 -0.000345710350694574558052 0.003015754167561654919966 0.004750890296627951168984 0.001711891327175559538235 0.001459897146608098855713
146.000000 -0.003374671195272604604098 -0.000353318668363547755493 0.003079145882607501119588 0.004840668201464493752839 0.001755230268409369151147 0.001501267561818752900929
148.000000 -0.003483235792964940995969 -0.000362817293954943427634 0.003138042976291482294426 0.004926090333431362537631 0.001796656531340374684386 0.001540870639266668420259
150.000000 -0.003586630907553991966935 -0.000373309427941469370010 0.003192877128074787101975 0.005007336082905115316743 0.001835785040339824947600 0.001578201706371110688357
152.000000 -0.003683673669816919099551 -0.000384229719649501106921 0.003244133859757468082985 0.005084782255969175039645 0.001872512287684081205841 0.001613078354409869285060
154.000000 -0.003773936698296129124003 -0.000395224234562443100128 0.003292323407469983746754 0.005158924243931301868715 0.001906905627225714697573 0.001645514262350178955399
156.000000 -0.003857526945098178113719 -0.000406085512642928472653 0.003337965992100833806377 0.005230332364633106558005 0.001939151495775038062594 0.001675660866825841831262
158.000000 -0.003934929871005196123923 -0.000416718901629715174177 0.003381575338998491116194 0.005299617779264348751966 0.001969512591669564556540 0.001703759208763776233919
160.000000 -0.004006863009292597338495 -0.000427104372878714161257 0.003423645434925513906382 0.005367399578410697938424 0.001998293986281659152110 0.001730102085724258059382
162.000000 -0.004074161173472264953210 -0.000437268236267126023369 0.003464638675396933611972 0.005434280991647458258775 0.002025815881627860814279 0.001755003469872421124898
164.000000 -0.004137700041066513269306 -0.000447270424830173202093 0.003504978548879864909404 0.005500832442224976026601 0.002052393404492272588335 0.001778775784466619935831
166.000000 -0.004198333688975401309373 -0.000457182646721066769484 0.003545050462476111337307 0.005567585789065868095982 0.002078325199471260480155 0.001801716374127877197397
168.000000 -0.004256864252837717736699 -0.000467083067864168522115 0.003585200114070467673766 0.005635028587536026166427 0.002103886353607542676614 0.001824099563556471053499
170.000000 -0.004314020025627734317153 -0.000477048766425687391108 0.003625736971398900616859 0.005703605645742609170368 0.002129325173352505581881 0.001846172424392183378933
172.000000 -0.004370455609144985840986 -0.000487155759095174271944 0.003666934845040682993539 0.005773720605658616555900 0.002154863526086530159387 0.001868154768918535088562
174.000000 -0.004426747978150714912804 -0.000497476121191092052198 0.003709038760535861723594 0.005845742676043329082158 0.002180698589777783913402 0.001890240629271710106132
176.000000 -0.004483402507544849945054 -0.000508071762893594130669 0.003752274516357383387505 0.005920015702717123899645 0.002207006346787639908952 0.001912601353840556132196
178.000000 -0.004540870304493176135008 -0.000519012205010200124503 0.003796838738811282847746 0.005996853999667485848879 0.002233942942871111527608 0.001935387410745332712955
180.000000 -0.004599543885884301019917 -0.000530353879150242631980 0.003842919509770005050131 0.006076558996039638921305 0.002261649610232368667190 0.001958732836559410207117
182.000000 -0.004659775621157781141934 -0.000542151493478557002133 0.003890693552636400806555 0.006159421301920566665933 0.002290256245463952178287 0.001982758820969134951062
184.000000 -0.004721883034318821725783 -0.000554461548468994413000 0.003940326292729523852132 0.006245721467291344593253 0.002319881629106830198128 0.002007574470821647111274
186.000000 -0.004786158225781706257451 -0.000567338858832641635896 0.003991979860341062814888 0.006335739805917891404041 0.002350639198028116327865 0.002033282003927282949318
188.000000 -0.004852873611349538436610 -0.000580837720506813888662 0.004045814633674053341361 0.006429758871019594819451 0.002382637942915491729295 0.002059977848569898104675
190.000000 -0.004922289699294547446473 -0.000595012498428311984756 0.004101991750772025421834 0.006528065573338736292397 0.002415983838439925146524 0.002087754304626815351348
192.000000 -0.004994657009264041359897 -0.000609916623532957748871 0.004160677588299852187881 0.006630959172847446930765 0.002450783442031494521740 0.002116702571670141166255
194.000000 -0.005070228257509006714043 -0.000625613506616021393392 0.004222037705088418739485 0.006738747107261792990140 0.002487143765304441166142 0.002146913194774626842259
196.000000 -0.005149253903048690850230 -0.000642162675663729117306 0.004286249749469478453889 0.006851755894947074952694 0.002525175178872963045046 0.002178478455402370513039
198.000000 -0.005231991856991810053990 -0.000659630828547571397731 0.004353496103340650374980 0.006970327510761966695318 0.002564991015754692228051 0.002211492143380691666188
200.000000 -0.005318709200999474466520 -0.000678086854755075691369 0.004423971364212459303489 0.007094826792182186425695 0.002606710998267103025078 0.002246052783607239543978
202.000000 -0.005409681722085807331624 -0.000697604699462077665166 0.004497880081202207391833 0.007225640252679839913019 0.002650460054831248364604 0.002282262483193716988417
204.000000 -0.005505201805319616045753 -0.000718265653400024456712 0.004575439767062160038857 0.007363181474456932835981 0.002696370461568894667109 0.002320228813909833761459
206.000000 -0.005605578271934399427201 -0.000740153083572127204817 0.004656884344217037709213 0.007507893712190202503698 0.002744583078177841896361 0.002360065932925315291407
208.000000 -0.005711139393245097568841 -0.000763361811784241117707 0.004742459630132471459785 0.007660249010272025468882 0.002795247582480650354320 0.002401894944541461442145
210.000000 -0.005822234362539578135520 -0.000787989962923062474062 0.004832432474171025581222 0.007820756582507181267627 0.002848524360364633814524 0.002445845259001004981525
212.000000 -0.005939236958633336421753 -0.000814146223268384650051 0.004927085555982881580339 0.007989960457767161794429 0.002904584528321708415677 0.002492054813072314828348
214.000000 -0.006062547510527902666633 -0.000841945815371845755759 0.005026723473122210981978 0.008168444780732871113305 0.002963611021881303302788 0.002540670892952466824316
216.000000 -0.006192593938262930600147 -0.000871513007481075413149 0.005131671985066012242616 0.008356835826245571918758 0.003025800481445600331049 0.002591851893506026162373
218.000000 -0.006329834583144003899713 -0.000902981277996913324173 0.005242280371303499435232 0.008555805176948278606419 0.003091363364695943766886 0.002645767281727385601686
220.000000 -0.006474762880784035341819 -0.000936497160857436856257 0.005358921703183390852776 0.008766072232084807722141 0.003160525383378424892772 0.002702598868727817179453
222.000000 -0.006627905385527252390965 -0.000972214380344922331559 0.005481996745315726934922 0.008988407245189728236867 0.003233528242862921450035 0.002762541498267804054856
224.000000 -0.006789826282478867228165 -0.001010297869075837831968 0.005611934388806460831389 0.009223633080049080390506 0.003310630308682819492733 0.002825803591811566328057
226.000000 -0.006961131377334914792365 -0.001050927344428455485759 0.005749191483968578604558 0.009472627363713272130585 0.003392108871024486493884 0.002892609423437620015662
228.000000 -0.007142465314300959142169 -0.001094290525889778271929 0.005894256614905672014837 0.009736324174307366477454 0.003478259564336659472733 0.002963198439477282477433
230.000000 -0.007334516345094730695175 -0.001140587811171416910208 0.006047650139690349466171 0.010015716595822876308630 0.003569397837790516843370 0.003037826648246382335583
232.000000 -0.007538020120924251825378 -0.001190036190725290814185 0.006209922397403077991285 0.010311856088600452815984 0.003665860382445579063876 0.003116768217474373374454
234.000000 -0.007753762099237121972750 -0.001242864798849220272017 0.006381659801318008071180 0.010625858359862190571921 0.003768005868281353552829 0.003200315941248345341652
236.000000 -0.007982580498067203336743 -0.001299322231917240727181 0.006563480649118016291288 0.010958904143113051138370 0.003876216228134453638948 0.003288782304988223121472
238.000000 -0.008225372561819051242527 -0.001359676701144112154207 0.006756040443845863323336 0.011312248779133875914438 0.003990899784915968168120 0.003382501985130617703362
240.000000 -0.008483105416270845383631 -0.001424225500096160763538 0.006960032120173382207129 0.011687232037380033619622 0.004112493566519479816501 0.003481833390227382241805
242.000000 -0.008756828434616377096478 -0.001493301616633571290982 0.007176191660832006470605 0.012085296790517273748944 0.004241467453067601298122 0.003587161191047995734832
244.000000 -0.009047686212288214013810 -0.001567282411065698544128 0.007405307679209344011440 0.012508018467343283083859 0.004378331013449203619470 0.003698900588733103692030
246.000000 -0.009356950931881154870373 -0.001646611959129133618759 0.007648228449160887273961 0.012957140526128937962902 0.004523641693837325387928 0.003817502650826766572717
248.000000 -0.009686039464041701352315 -0.001731807218041632413438 0.007905886649686643882773 0.013434631658780430210620 0.004678016049409857400609 0.003943460603231889113895
250.000000 -0.010036553371304181986323 -0.001823481097002297313808 0.008179320100612799682160 0.013942746178238077728317 0.004842141910244268307451 0.004077317144186096663228
252.000000 -0.010410309641913157580051 -0.001922351915796288723826 0.008469707346040633577644 0.014484098985142048604535 0.005016793407902322456116 0.004219673656923174018263
254.000000 -0.010809374209408997152826 -0.002029258691224606562381 0.008778398591109091986251 0.015061732958704556264995 0.005202845220838419812437 0.004371199544053186274162
256.000000 -0.011236085317848183359746 -0.002145155616664152185835 0.009106957030767189736897 0.015679177832412068832602 0.005401284108970895794788 0.004532640163796408834529
258.000000 -0.011693062308872344962074 -0.002271101025008431719548 0.009457189425700224597038 0.016340477448752357275685 0.005613216623850210071356 0.004704824076416180486659
260.000000 -0.012183187544454524703363 -0.002408219182347012994605 0.009831170457456536379559 0.017050169698052064504168 0.005839867371712751178969 0.004888665550099982430587
262.000000 -0.012709562053036844650467 -0.002557647919064513428178 0.010231241230351451748648 0.017813193813352012212503 0.006082565671957701133876 0.005085162054290057534467
264.000000 -0.013275428687808730685016 -0.002720471303328070040300 0.010659970714459100771254 0.018634711235737341089580 0.006342718034054574058334 0.005295384970987436490386
266.000000 -0.013884060960210270821436 -0.002897633439248584272946 0.011120082635045920246841 0.019519842982965548289220 0.006621768123333319350232 0.005520464512066049385386
268.000000 -0.014538643617480626057947 -0.003089870253990895359458 0.011614332811291630878636 0.020473343463340860221011 0.006921147381959676450625 0.005761569610215656021823
270.000000 -0.015242156270498682241188 -0.003297657028534670565351 0.012145356029151942525712 0.021499255821732326382500 0.007242226738794514326325 0.006019888418286186218542
272.000000 -0.015997298066442310060520 -0.003521214394331322310866 0.012715497174527554818946 0.022600632840186693495177 0.007586280842530121124034 0.006296612931992425117589
274.000000 -0.016806475006991606485629 -0.003760566704781759771181 0.013326676056090159400158 0.023779412388237993608575 0.007954480466088084678056 0.006592935686422070513946
276.000000 -0.017671874685736360666155 -0.004015666288448406853751 0.013980313929033353140263 0.025036508165239189371842 0.008347918740980753496417 0.006910060251258965009769
278.000000 -0.018595621873238366711378 -0.004286567725008728207969 0.014677352338470702267093 0.026372146936386259286067 0.008767672942883162831573 0.007249225649451675364265
280.000000 -0.019580027308820503739728 -0.004573643015267741564200 0.015418378212325235462887 0.027786443307996407103833 0.009214901795132669076738 0.007611747098873140882080
282.000000 -0.020627904255985003018070 -0.004877821895261784911069 0.016203847119099515361462 0.029280169303009397074877 0.009690968493070590758509 0.007999068077335649840087
284.000000 -0.021742956957635759668301 -0.005200851111511064529813 0.017034395075813411890575 0.030855676554642847558840 0.010197586767297640159002 0.008412825844633764482694
286.000000 -0.022930232747349635347156 -0.005545566523687074644844 0.017911226622896226495785 0.032517937184021218632868 0.010736984931745366389499 0.008854927171235801863780
288.000000 -0.024196588321231136953227 -0.005916119209949626325806 0.018836608685886827713185 0.034275685420018242588469 0.011312083212227696041308 0.009327632556415256515070
290.000000 -0.025551029196208420446457 -0.006317998945666141764888 0.019814523950817012482029 0.036142560821788315139624 0.011926655186690313797948 0.009833629909010556044424
292.000000 -0.027004486656209168021769 -0.006757420357840908040070 0.020851600341130465537942 0.038137914391826989446432 0.012585390161538541342612 0.010376054504634472236413
294.000000 -0.028568149264738811748954 -0.007239247916769481379362 0.021958327287434201147143 0.040286183686406400183966 0.013293599479842032121124 0.010958314560336211707092
296.000000 -0.030249215060286348266683 -0.007762675473319101925040 0.023149768406634890077767 0.042612121642059942738801 0.014056000128097878576483 0.011583421506086379396128
298.000000 -0.032044186342329361583126 -0.008315600647517034163525 0.024443162020467555650693 0.045127863112778332510544 0.014873923315278697945829 0.012252500229603198803052
300.000000 -0.033933004934933466700819 -0.008871690041868881410059 0.025849773910834056983576 0.047812644091506345533915 0.015741756487752844168027 0.012963018608427389830040
302.000000 -0.035879144059647961884085 -0.009394333938130435684988 0.027363940785213959616673 0.050598632154791774173663 0.016646078892346000827063 0.013708727672319093171538
304.000000 -0.037837375038407235205984 -0.009847176939374474927136 0.028956820922501850384956 0.053377863079673716628637 0.017569680069313697856614 0.014482283437924268337804
306.000000 -0.039764886604142839210407 -0.010205705898810842405244 0.030579050977626774654450 0.056027536361298847789048 0.018496906833480257492663 0.015277856409468456785894
308.000000 -0.041629296555606640217739 -0.010462392449840670835548 0.032172530155011237751328 0.058440322775871141047777 0.019416000261318979575043 0.016091048219202663122074
310.000000 -0.043409709182078703992858 -0.010622283878897641890005 0.033685723393332693553770 0.060545193857836979156595 0.020318710988909589876261 0.016917484863939201422678
312.000000 -0.045092022352886597380550 -0.010693800589448253929303 0.035083340102891338863067 0.062309994359895030935359 0.021199337282055800979474 0.017752358050394181215870
314.000000 -0.046663076355897968594544 -0.010681887579661104858975 0.036347781247124719139485 0.063731673449612863402436 0.022053913031418102136394 0.018590721020044977118690
316.000000 -0.048107368258282261208603 -0.010586774659390243980006 0.037475324878970789344024 0.064824610259193171657444 0.022879253515883615777149 0.019427438112820043236706
318.000000 -0.049407283507882072959294 -0.010406772867932069862040 0.038470352842893906775146 0.065611737500412131707250 0.023671862311611297641223 0.020256601281096988514951
320.000000 -0.050545740650634891910631 -0.010141564692749805917660 0.039340176511503524570124 0.066119053266812333191638 0.024426901063664477331550 0.021070597864108798341620
322.000000 -0.051508704848268589693294 -0.009793900084451094903426 0.040091386330763909007224 0.066372116972268302426130 0.025137015330241971322600 0.021858764675875733130006
324.000000 -0.052285313721335921477440 -0.009368499611951025193846 0.040728743414768328601205 0.066394131591936356162620 0.025791212974939393964835 0.022606095884564365861014
326.000000 -0.052866681102362304833786 -0.008869406971912350765019 0.041256161539278572714107 0.066205320086476324159541 0.026374397734270655507816 0.023292867909119191471845
328.000000 -0.053246173465914939382237 -0.008298964122957887615262 0.041677299299708404911602 0.065822279380980217022845 0.026867939810802255601319 0.023895653490904108368076
330.000000 -0.053421254225994425912649 -0.007659401072917088743042 0.041994427825656953368050 0.065256814001569601879638 0.027251513156929058068201 0.024389770986852632450592
332.000000 -0.053394709890160221843480 -0.006955304179031011196921 0.042206449578147543777451 0.064514994182657783849955 0.027505998238409882367117 0.024752786233459382614353
334.000000 -0.053174792351426074243914 -0.006195890226541277828742 0.042306565965309822496820 0.063596171894069200569710 0.027616551558732264914919 0.024968234724259703166682
336.000000 -0.052774338130920195322204 -0.005396166020216399718257 0.042279999430870414400818 0.062491355691727548671288 0.027574314810594861141491 0.025027943074706193032908
338.000000 -0.052206807741104657716313 -0.004575022660238579723380 0.042103788520609565504405 0.061182626234383495622549 0.027375466224178565677327 0.024931053507243314953934
340.000000 -0.051479794191177846718332 -0.003750558775533659183754 0.041751125275132534853118 0.059647552625877835186241 0.027019293298158594818226 0.024680992468511658843866
342.000000 -0.050592604735093901768828 -0.002936602310137068766460 0.041199680299189481158528 0.057870126054941573023882 0.026508744947778689615703 0.024284204736200281499192
344.000000 -0.049540795742914568722259 -0.002141555226297874817837 0.040441228385511188148094 0.055854241963430771578114 0.025853216162220152285478 0.023751325076828463944700
346.000000 -0.048321526902144591730792 -0.001367260522837691243472 0.039487677866081906385975 0.053629886697363113312598 0.025069212843958705444480 0.023097433322131103589081
348.000000 -0.046935405093290007150220 -0.000608041007102218364518 0.038370236022991895119549 0.051247952689790758629140 0.024177130827548673486227 0.022339656830142762961033
350.000000 -0.045387480758598629237976 0.000145801636725166551458 0.037130312267715771812338 0.048766692116908476328785 0.023196749061196914737382 0.021494008609237572060557
352.000000 -0.043688267650130632735461 0.000900874335772660185875 0.035805876516497602002342 0.046236126163559480850562 0.022143950963926534863946 0.020573359482569612138869
354.000000 -0.041853352429025852954325 0.001656322624128930397908 0.034422126657625229384507 0.043688985433772607736014 0.021029808414301180696793 0.019587170261611466098861
356.000000 -0.039903261876200211977217 0.002403017468997507843920 0.032990178389174423800867 0.041141519947909190035862 0.019862407943166238144528 0.018543163223737675615599
358.000000 -0.037863040891594375303431 0.003123539349519219819606 0.031509924660663386764003 0.038599360775997688943750 0.018650208342918236925634 0.017450049209258182425497
360.000000 -0.035759720033191340349266 0.003792549644504653299365 0.029973189313395272315166 0.036062886790150225357898 0.017404460080297320945242 0.016319394491995244111937
362.000000 -0.033620482662933139084149 0.004376494359357111646469 0.028365543227853964869389 0.033529727370269941932879 0.016139134167508766698473 0.015165489796587796472727
364.000000 -0.031474808341458090921172 0.004830462419476885295444 0.026666131927254779071523 0.030994835147844627259994 0.014869668499992567262113 0.014004436126019269986953
366.000000 -0.029359194229392635011600 0.005095271396116587622749 0.024848102761072105026940 0.028450859134809106804065 0.013612307600609260815894 0.012853735127623212158854
368.000000 -0.027317947418497037781471 0.005104915562543775250925 0.022885388407310608416267 0.025891882392337486895606 0.012383539762725844987634 0.011731421470081004193586
370.000000 -0.025392876106266185076699 0.004812188654601098382335 0.020769142814343843211899 0.023321903253345183104628 0.011198722038025058292399 0.010653729236706125857448
372.000000 -0.023605253838968581758806 0.004219977993296574955706 0.018525378636702428958305 0.020763888444943996020031 0.010070562067685476931311 0.009632524811102926090567
374.000000 -0.021944837765022134207227 0.003393239990678348100978 0.016219561377619214070922 0.018262056645784455893855 0.009008616037172397644772 0.008674472936123677618836
376.000000 -0.020375350661499758153639 0.002444149100698387189895 0.013945135323513799946449 0.015875348872481157697090 0.008019723268990631287467 0.007782119100883679550795
378.000000 -0.018853816548502152355971 0.001499098732355985024237 0.011800854382144490908879 0.013663811983489929785529 0.007108480873160653509824 0.006955778700138671999387
380.000000 -0.017350822836415223660023 0.000662634249520963948023 0.009865731325055332456841 0.011673067181894300481382 0.006277200208023823134462 0.006194943741299177922266
382.000000 -0.015857039085460693933483 -0.000002931330563770441060 0.008184538996223081341874 0.009925520582354420071058 0.005525600747486590288982 0.005498506238705341310491
384.000000 -0.014375451231255274506249 -0.000475852009713164053693 0.006768491236709423507223 0.008421167081215872804445 0.004850460989946783416094 0.004863958876949045322113
386.000000 -0.012913004364295084178127 -0.000763879551147168128766 0.005602926060844943059736 0.007142634301509230912441 0.004245605954646698015909 0.004286754487626490660312
388.000000 -0.011478002533911900104324 -0.000893724786179775397901 0.004655985761762376773376 0.006061151988215798119830 0.003702765942187266796914 0.003760740705860637564384
390.000000 -0.010080783603644866142091 -0.000901715290112915985633 0.003887964505208277819770 0.005143377299877924767324 0.003213232990630372331448 0.003279493621851493987546
392.000000 -0.008734685153409534053015 -0.000826100843403380739882 0.003259594745596226458839 0.004357612093356718480086 0.002769459164453742447409 0.002837640872473724991398
394.000000 -0.007455879856299743244086 -0.000702224099246209548450 0.002736938570217237534643 0.003677372372721636906850 0.002365833203365640645399 0.002431466255741246071387
396.000000 -0.006261215499190007569008 -0.000559605562296277376719 0.002293245548957601343681 0.003082410625723666728476 0.001998619125158301347567 0.002058765010399562014887
398.000000 -0.005165317153026868952914 -0.000419976609266633528483 0.001909393871052528397769 0.002558571951478422028259 0.001665626165829034444066 0.001718505686744637231400
400.000000 -0.004178986961376080291886 -0.000296555545662698072894 0.001573481457224081133880 0.002097164628318759754116 0.001366005998370977249715 0.001410690513160598900597
402.000000 -0.003309526915990133270201 -0.000195366802353723811522 0.001279275098683163927604 0.001693646974130999212707 0.001099991686161767628568 0.001136204037861792076960
404.000000 -0.002561548727398058316468 -0.000117759467143884361288 0.001023878276444157046574 0.001345703929427365325502 0.000868305581180364239105 0.000896315831845530784638
406.000000 -0.001936833973476244927583 -0.000062549976901074438884 0.000805797579269173125556 0.001051653749403239600235 0.000671474249899164433476 0.000692004702685271701548
408.000000 -0.001433084060885668085603 -0.000026949411134844772006 0.000623865404014989030114 0.000809495782845472285592 0.000509257898493756873577 0.000523356247407134270860
410.000000 -0.001042603529590559793133 -0.000006887649906202314991 0.000476645083963662290812 0.000616271301034785582047 0.000380235587164594215741 0.000389124474239227067986
412.000000 -0.000751819422032168902317 0.000002415312699835905889 0.000361734789557226731060 0.000467455708347585912037 0.000281485263234519406811 0.000286398445298643815598
414.000000 -0.000542603720222485934495 0.000005411334646159827357 0.000275218424838440502492 0.000356647901201416527364 0.000208586555182002988951 0.000210629661764258997378
416.000000 -0.000395614745723940847231 0.000005393515361001051418 0.000211965867433491864666 0.000276262723172259426745 0.000156236325686588022662 0.000156300211452471124246
418.000000 -0.000293843414276961760207 0.000004215695985550532747 0.000166601484548768892513 0.000218881946306556586946 0.000119297255414902098405 0.000118045536652020834848
420.000000 -0.000224102434682571678964 0.000002683804449588664581 0.000134339504935099079107 0.000178188905133597164879 0.000093486112923536792405 0.000091396076216940233604
422.000000 -0.000176678746790975729590 0.000001189117452954985356 0.000111477255582991202978 0.000149373185606314884920 0.000075551356298925932578 0.000072957037692515652868
424.000000 -0.000144557116536834319226 -0.000000082275766975811588 0.000095250944043235279005 0.000128881872682109859234 0.000063108177680236795170 0.000060239370506775749168
426.000000 -0.000122729409095728670895 -0.000001049774797688433909 0.000083650951909949465470 0.000114145569572092194042 0.000054428649327515409386 0.000051438964856910620097
428.000000 -0.000107655443328766883913 -0.000001712663551140356061 0.000075204034361929934490 0.000103305957531201370340 0.000048283024434254470235 0.000045273914265430769495
430.000000 -0.000096937158851834000412 -0.000002116199034414140931 0.000068880948473936154971 0.000095075715811172211095 0.000043807266771360152163 0.000040840001586554349107
432.000000 -0.000088989531537601515576 -0.000002318868417608341220 0.000063964886003484256274 0.000088567668465102736817 0.000040415433677442222610 0.000037526033084737843296
434.000000 -0.000082800044110076654984 -0.000002389682473715080903 0.000059969975228527708764 0.000083197397123853099083 0.000037722879770539414514 0.000034932119343534563400
436.000000 -0.000077737778657120624732 -0.000002366383328915526142 0.000056588828828755174927 0.000078585572414395594358 0.000035486511437942430572 0.000032804110412676980031
438.000000 -0.000073407356446541686219 -0.000002289194760781167329 0.000053630592164021336160 0.000074505109007884742257 0.000033555896307917812166 0.000030985335546974600784
440.000000 -0.000069578459348564817687 -0.000002174976802476189910 0.000050967391316308900586 0.000070796256138554652460 0.000031828635536333982358 0.000029370660045562546424
442.000000 -0.000066102886152331918369 -0.000002050877178689309204 0.000048501773626903724223 0.000067347469854481755401 0.000030247071355273151197 0.000027899928538258474088
444.000000 -0.000062883316652055719180 -0.000001905277136679622667 0.000046207905772075690400 0.000064123273112862792518 0.000028779634501524834557 0.000026540315711868574429
446.000000 -0.000059890913632163533050 -0.000001782461151309434351 0.000044033567114523781917 0.000061071862784385695807 0.000027403468538484789446 0.000025269729705381081965
448.000000 -0.000057051146248608289129 -0.000001667511487396921097 0.000041953651844820839866 0.000058155208158155569759 0.000026096121883786133587 0.000024065375147956072946
450.000000 -0.000054379469506672075058 -0.000001557898479521959101 0.000039992133359872508226 0.000055405515620871895416 0.000024862171837420113905 0.000022928874382747658621
452.000000 -0.000051833669801185635543 -0.000001466715822202370867 0.000038111136014762463109 0.000052781935394342300119 0.000023687247384436041465 0.000021846950505283328000
454.000000 -0.000049422233632267831066 -0.000001412071002396598454 0.000036290744597744694830 0.000050264496720624571172 0.000022565599843861818707 0.000020815554043060476952
456.000000 -0.000047120445528468511199 -0.000001382510033753782849 0.000034533196206903998436 0.000047846320357521051139 0.000021491148516904901570 0.000019828360476350104930
458.000000 -0.000044919210652797825667 -0.000001333577138101319860 0.000032876890929933670735 0.000045555946901206363598 0.000020473668487515392329 0.000018892401187413840731
460.000000 -0.000042812790074287246313 -0.000001302825626329052013 0.000031278448079155106822 0.000043354445234758165516 0.000019496047278899180489 0.000017994731873718358217
462.000000 -0.000040816950906533036418 -0.000001278252602792370010 0.000029754945567102610569 0.000041257459193488864866 0.000018569154000742365954 0.000017142906419320202494
464.000000 -0.000038893338401241011183 -0.000001240179441369257517 0.000028310113176046867761 0.000039264595032988433120 0.000017681051603696944523 0.000016325195336355404873
466.000000 -0.000037050361958549334388 -0.000001202319841615789552 0.000026936768367125053705 0.000037366207988160725741 0.000016831805153488499881 0.000015543060204754891382
468.000000 -0.000035291481308458696662 -0.000001136383985470893850 0.000025660330579294469999 0.000035588453969593848930 0.000016028816094392259157 0.000014801614166398461043
470.000000 -0.000033590304419603926990 -0.000001075369699941450433 0.000024424036033840670895 0.000033872342972692459293 0.000015253265585282769375 0.000014085919160971007379
472.000000 -0.000031974358832171213916 -0.000001010082727053232416 0.000023255979962521462843 0.000032245350938289720161 0.000014520725477887216757 0.000013409919256607207111
474.000000 -0.000030432648289176125208 -0.000000954140331591953821 0.000022135881767548951608 0.000030692906767161530208 0.000013827838292694639410 0.000012770096108508456723
476.000000 -0.000028965148089360023880 -0.000000915217231613100526 0.000021054973920559490094 0.000029199345285403617925 0.000013159054674271919222 0.000012154549587019967784
478.000000 -0.000027571062802554109183 -0.000000878884357169997152 0.000020029453204442938422 0.000027781107469238810521 0.000012521786653260216023 0.000011566900240010444104
480.000000 -0.000026236122843789205376 -0.000000834362564982857696 0.000019054349969057959223 0.000026424893001276213590 0.000011913263491199432799 0.000011005832986267934895
482.000000 -0.000024955069197156858762 -0.000000772614565427364991 0.000018153050925454612387 0.000025159231152546533564 0.000011331669890297293432 0.000010466798475919853186
484.000000 -0.000023744818607783723497 -0.000000740266138587239807 0.000017277764496979821398 0.000023955014340980649971 0.000010785270270151098648 0.000009960385102727084528
486.000000 -0.000022582581558003910556 -0.000000697633671572276909 0.000016436811030225284823 0.000022789604525529029346 0.000010265696423931121371 0.000009480577000761556224
488.000000 -0.000021481749300638354721 -0.000000661743900623602339 0.000015633887077334864273 0.000021670397369759605762 0.000009758300307298946487 0.000009011886462329084452
490.000000 -0.000020436767901609001512 -0.000000608831990594954141 0.000014892363030605650434 0.000020632770358181157786 0.000009286937846946712881 0.000008575436632374196276
492.000000 -0.000019451929818519678866 -0.000000586623821614563311 0.000014166315520418206185 0.000019631978304195847889 0.000008832292664524923027 0.000008154756469583207386
494.000000 -0.000018499309536557369629 -0.000000566799635414784907 0.000013463331376053529746 0.000018665646844060043361 0.000008400993016396844025 0.000007757365297737726150
496.000000 -0.000017594263899911405608 -0.000000534467636813113137 0.000012810550646270303158 0.000017766006691573838194 0.000007995752365345809310 0.000007382900018310580652
498.000000 -0.000016759405068938189960 -0.000000511926739312988767 0.000012198932937971212790 0.000016920151678451737554 0.000007616258439524852045 0.000007032050630699743059
500.000000 -0.000015948628648300777820 -0.000000514116228132564656 0.000011583281149564184754 0.000016091586232544681409 0.000007251540435508073422 0.000006695801056476728707
502.000000 -0.000015182507678949185983 -0.000000487240293829765563 0.000011025446125901639319 0.000015314051515429901443 0.000006897707745267474028 0.000006369572984958660254
504.000000 -0.000014468420978673840872 -0.000000476236724143923136 0.000010494351027829198000 0.000014580613783482948033 0.000006564672279581753175 0.000006062241723219885521
506.000000 -0.000013758035210609028401 -0.000000457005686781731321 0.000009974345490410394240 0.000013864684892904003790 0.000006243357976849022032 0.000005764874654643514037
508.000000 -0.000013097889501423757371 -0.000000437378913675495425 0.000009503430840356333627 0.000013215271363067875195 0.000005951519804582457920 0.000005494427951779084525
510.000000 -0.000012477373759414456142 -0.000000424651245190457526 0.000009042392054927109960 0.000012584737936437941812 0.000005667270305248050315 0.000005231303469212850045
512.000000 -0.000011879850731608537762 -0.000000408708396002460277 0.000008601939911188428626 0.000011977906771314604360 0.000005391072174992663326 0.000004975280749405739770
514.000000 -0.000011306670646528652028 -0.000000389690559226839877 0.000008191176903843292654 0.000011399481229985643395 0.000005127348587402126543 0.000004732297875709543841
516.000000 -0.000010750602385884734918 -0.000000348042808842085646 0.000007815488929637645488 0.000010861511050931373882 0.000004882593119332864235 0.000004507314482400318615
518.000000 -0.000010263072235760038658 -0.000000348213650614052960 0.000007447375406165098565 0.000010358451682361385622 0.000004658000716985180391 0.000004299454280463598328
518.780000 -0.000025489998280486069441 -0.000019608846291593358949 -0.000009526971142164665895 -0.000003215477370631853366 -0.000002769770257813683286 -0.000003447999363324626836
520.000000 -0.000009775268587437020620 -0.000000317571753666785299 0.000007114972167208661488 0.000009893051140935035001 0.000004449251253646159083 0.000004105148661395423888
522.000000 -0.000009323278463513044964 -0.000000317878617067148429 0.000006768960442433521819 0.000009423840151171735874 0.000004240892178634966098 0.000003913592957310395084
524.000000 -0.000008849610941928065760 -0.000000296955296941086655 0.000006439446039318837130 0.000008961826282384542528 0.000004032264185505403719 0.000003721278973151879480
526.000000 -0.000008440209084525448859 -0.000000314303586223703294 0.000006112047271910200582 0.000008524182409915258577 0.000003839091196591715246 0.000003543251505948206984
528.000000 -0.000008024646324138490853 -0.000000268634361981162237 0.000005836612601605311366 0.000008126872832048722800 0.000003661747415379256219 0.000003378888343989388819
530.000000 -0.000007629303133629977566 -0.000000243448209207869549 0.000005560903246868814090 0.000007738163884069725789 0.000003484768048012988194 0.000003215067588872267423
532.000000 -0.000007280164393197787372 -0.000000238042331991516457 0.000005301553753355490031 0.000007380404251247100641 0.000003321030720797377015 0.000003063699836647551849
534.000000 -0.000006947170568653041352 -0.000000244474343442232192 0.000005039778414814681641 0.000007027563567485419269 0.000003165091397731980052 0.000002920473831447582664
536.000000 -0.000006611901505428804520 -0.000000218542928367815326 0.000004822576076138351220 0.000006716162262628677880 0.000003014244853331197769 0.000002780285207735315761
538.000000 -0.000006298622295721437671 -0.000000197542310441411973 0.000004611168320488430813 0.000006417091868153839478 0.000002873780930085832370 0.000002648592317317037142
538.720000 -0.000006195284631606143179 -0.000000193920570683027419 0.000004531783629525394395 0.000006306359096392925185 0.000002826533382099833982 0.000002605237329948814385
