0.000000 -0.000000000000000000000000 -0.000000000000000000000000 -0.000000000000000000000000 -0.000000000000000000000000 -0.000000000000000000000000 -0.000000000000000000000000
2.000000 -0.000966405825481038600888 -0.001953695680960018492278 -0.003620316861478900961197 -0.003343487182674498379292 -0.002628811771115481359107 -0.000713607175848634590377
4.000000 -0.001243846345026323107694 -0.002726057466505375607990 -0.005867202623721234563958 -0.005399264270651909711218 -0.003719473685105193546535 -0.000296749044275959866085
6.000000 -0.001067375861261769332336 -0.002804307701519395765871 -0.006934341568382496566458 -0.006438827237319887965283 -0.004234270139840051044855 0.000163767579458901156152
8.000000 -0.000803349418214956124094 -0.002798879227150506947969 -0.007845515924197498866532 -0.007415018172812953833883 -0.004847977917926795179970 0.000672118318410115417501
10.000000 -0.000750932177559558581073 -0.003230833642516755307289 -0.009593816914853375149574 -0.009165247407222168810059 -0.005920941678682743562756 0.001291746596855530360495
12.000000 -0.000820979209208880255678 -0.004187559146235917892365 -0.012811983891028718568483 -0.012361404297207397029457 -0.008168251252697588185581 0.001903006506697021852151
14.000000 -0.001010857337612766073884 -0.005704619310826407330151 -0.017665044311384877490090 -0.017112394483614467438626 -0.011368836214660844874391 0.002754160236307928808636
16.000000 -0.001847482364532632929249 -0.008797401002766876837446 -0.026026074368919630691588 -0.024948142492177891732519 -0.016313489615716561531578 0.003757250233835833248125
18.000000 -0.003428382744718464630873 -0.013040885217583236474481 -0.036077224607264306299736 -0.034046837405422754330164 -0.021268770199066096282525 0.005325127395284744852288
20.000000 -0.005359662349308434887984 -0.017895948783531887005260 -0.047135489805319716327681 -0.043891629870234337429391 -0.026431071895982947983494 0.007047640428565694198371
22.000000 -0.007319164117595826704599 -0.022607235120107822823332 -0.057518271817681501656416 -0.053033550500628967583339 -0.031114399948031883080812 0.008632455376148054360108
24.000000 -0.008894528145791199061354 -0.026419359418988024729158 -0.065568184584649941148982 -0.060045021188674656265061 -0.034253784521535525497971 0.010353544698803470933135
26.000000 -0.008039776145384064376387 -0.025642042949909002458320 -0.066050227937283670365254 -0.060770262084818463255154 -0.034589178366372250184035 0.011745983238278183413694
28.000000 -0.007884495227357126226342 -0.026068099769863455061891 -0.068343798195709848375401 -0.062937234678619183303461 -0.035337970230503418234136 0.013212145341523559224917
30.000000 -0.006573046730614615605626 -0.025152791372106377693063 -0.070803377194103150893412 -0.065306511994632873707722 -0.036749007997124633062569 0.012821059508074028263080
32.000000 -0.003848147810269319634563 -0.021661173578831880576212 -0.069270642858604097868991 -0.064305924551842877368024 -0.036928386091266043878001 0.011466279328653653998837
34.000000 -0.001222590594919918194697 -0.018162599569765621593254 -0.067025765168974238417121 -0.062659074127921959851406 -0.036702867334374111862871 0.010035796418114454123249
36.000000 0.001119036112681804544591 -0.015359094953884856737947 -0.065146404603099575258973 -0.061361336080443459883860 -0.036994319532783905002393 0.007782096283454081019071
38.000000 0.003219834985790383762028 -0.012826840801485094381573 -0.062960375903229115479576 -0.059753518359189038144930 -0.037599882126552172656453 0.004457256299104942788569
40.000000 0.005030069956196964349460 -0.010866939446917940961801 -0.061340999220960153170967 -0.058650368840959185567918 -0.038675059426907555659714 0.000652013611254962668039
42.000000 0.007107312256346721805744 -0.008529408840324230814400 -0.058860737482231605122163 -0.056891522185771689623657 -0.040010202302889201486646 -0.004271393072686769862290
44.000000 0.008962167733973180894225 -0.006433791470253420741177 -0.056131906601806370871177 -0.054977661009406868231064 -0.041728260014332212157750 -0.009469790944645270491797
46.000000 0.011022786202173102607094 -0.003468526445906637990096 -0.050982760137137241029937 -0.050641689771460510205436 -0.041015224180997074399091 -0.013140976731683693193298
48.000000 0.013341100702303518993341 0.000016064894934396074051 -0.044080255802075203608315 -0.044762587811322814002057 -0.039600087928231067491147 -0.016593432556041121106460
50.000000 0.016072724390889199519439 0.004165054401839052115875 -0.036102136762588318830147 -0.038077023608087443018455 -0.038001628195801911980212 -0.020440522331162919167369
52.000000 0.018521716281050624314242 0.007727072448630954194793 -0.029113638704213060104387 -0.032304977215024566206125 -0.037096834761176464279053 -0.024267554583965945252944
54.000000 0.020401092795487320991077 0.011008895024931511161248 -0.021367479905042695287332 -0.025543210486296673289441 -0.034684584617362582137368 -0.027389674290209910928473
56.000000 0.022596580130137634834231 0.014572664112788021040235 -0.014008999314780478870346 -0.019306196255858061594513 -0.032278281618174697875645 -0.029202992434501431895377
58.000000 0.025069958265726544760499 0.018293671259788316790784 -0.007074729455983722221923 -0.013437155351175587847390 -0.029753334053100023715022 -0.030339216106369113618024
60.000000 0.027023562688127212433331 0.021880664542185394860763 -0.000204474967765011609059 -0.007540399781371653724349 -0.026469617674262067158475 -0.029214108195924980149183
62.000000 0.027736323238805343782687 0.024495361057752511324548 0.005930051525184801448909 -0.002082161272769640549679 -0.022494875306419019611592 -0.026625091031129290153334
64.000000 0.027890932442993607298654 0.026021042146922388621499 0.009808329857617670635705 0.001448860434084026267698 -0.019553305451503775330702 -0.024209779658644986488625
66.000000 0.027259377797167250179200 0.025805891600595529111750 0.010842523357750821766388 0.002414825564556043625136 -0.019150824742477839945920 -0.023905405207783968213331
68.000000 0.027221715661476353353976 0.026249046327408227102795 0.012599551885389763741796 0.003902320317292097464484 -0.018710336975361077649360 -0.024146156962559717912287
70.000000 0.026657050853102159937436 0.025937548550524287122032 0.013428563433303404572872 0.004631085185581037579061 -0.018755185649869894615183 -0.025017867912988961398568
72.000000 0.024917156525747056333708 0.024225264389622674227054 0.012557928934081693389535 0.004076189302258316493610 -0.018920605668880416394551 -0.025056860679332677160902
74.000000 0.023873076811283901188521 0.023097947770997707267471 0.012161720388068720383190 0.003867118892957741287802 -0.018939358805690521131426 -0.025342118869332512509640
76.000000 0.023340855255943527418738 0.022258592658971391997635 0.011878661203470437107699 0.003698638618103157384848 -0.019246551290491877711508 -0.026082738000758939195256
78.000000 0.022177767462751137028665 0.020668031168108957212892 0.010866020836933450166573 0.003020734336187731045031 -0.019728279067230208854156 -0.026878304474209333690959
80.000000 0.020403811882799997162730 0.018756823492346943321740 0.010355854330860591802632 0.002950187840915985664630 -0.019102803969420233121124 -0.026639108992115887591945
82.000000 0.018433390319283579628085 0.017013548713918861393646 0.010417335266090380421766 0.003485649767439817810211 -0.017350875665507869277659 -0.025088789755998288505401
84.000000 0.016152891344826978553550 0.014990301175260550142765 0.009915021459871053988167 0.003582027574527882080729 -0.015631241486872591434087 -0.023231876174159137027342
86.000000 0.013249069572987104415063 0.012257327133095220761394 0.008428219435429665229442 0.002919474279247490609845 -0.014144888589707131643092 -0.021167705728895779004883
88.000000 0.009688749515506175913337 0.008756008668697055213892 0.006056471939290973896530 0.001659060177620515913466 -0.012565010048989109364692 -0.018652763184299724075199
90.000000 0.005502826458348148222499 0.004538669705319149823286 0.002779903756658730264867 -0.000316440182839812381502 -0.011250276941586747833646 -0.016028348079273595921945
92.000000 0.002727887138549935433507 0.001859823524032844493242 0.000755319393741466470205 -0.001412242147771884106730 -0.009687434963533414489234 -0.013348211852725751572213
94.000000 0.000363205707487314084086 -0.000330440410258558015660 -0.000893337271815403425809 -0.002248083295509780386856 -0.008015423950182794243791 -0.010542083031198317202848
96.000000 -0.001249140814857069769692 -0.001767934479832569596297 -0.001870550406731171866684 -0.002619152205842943843817 -0.006450108838376582102991 -0.008310864685086119182933
98.000000 -0.001840672752870942899955 -0.002171140197966048724504 -0.001907127327129285680046 -0.002260852043464322246036 -0.004714496610026917312875 -0.006162799283642141079387
100.000000 -0.001673278100171942403898 -0.001788597497564033654560 -0.001248928011692215182121 -0.001380233142287361604653 -0.002875750964008639241898 -0.004136504839323256778327
102.000000 -0.001451957446159859955667 -0.001376624540949337310858 -0.000650079530251791389873 -0.000600708639900372634926 -0.001259373127080877334538 -0.002232108772220444282280
104.000000 -0.001106308749901413609681 -0.000910529664933340684117 -0.000031375963341054879962 0.000059734327349753079187 -0.000320470235917963170314 -0.001272255817136476235482
106.000000 -0.000665351461419827049787 -0.000362185698295797490164 0.000685294388148482242970 0.000701240101751935763011 0.000277644819921744878937 -0.000713782823232614609295
108.000000 -0.000298719429551803331187 0.000082559367788186767195 0.001232163436861103593747 0.001180921127013124117405 0.000695274293714324737210 -0.000295388034370421546145
110.000000 -0.000131325694757896538475 0.000281500625881522293942 0.001519333655664597366661 0.001443092897967954320315 0.000893703295159748237197 -0.000169701075655239770482
112.000000 -0.000173924446989645652226 0.000251293113937042344574 0.001542603042906751749028 0.001484663436094340108196 0.000980416684760801026427 -0.000091301333859719626903
114.000000 -0.000259742768518521479834 0.000173852673484801051621 0.001506236508726962889174 0.001476157841252745709856 0.001047656957295317560128 -0.000006441317153149487259
116.000000 -0.000329726343425627962860 0.000112825327204372298485 0.001482898454735450321715 0.001477238094382439005658 0.001117252452471887216867 0.000078392640049472018041
118.000000 -0.000386636651005213321988 0.000065017161899981164644 0.001469345346862079362826 0.001484801546934350459719 0.001185600868951430320389 0.000159555535156288369686
120.000000 -0.000432312878683089631127 0.000028325568941519937830 0.001463678053669108377818 0.001497062005042972291854 0.001250523085107774472896 0.000234655534630307644438
122.000000 -0.000468585601674434708199 0.000000745126829567460182 0.001464192052733784363966 0.001512560345555974926357 0.001310706912421277011566 0.000302345831220746726238
124.000000 -0.000497218958262290490480 -0.000019594848961491034356 0.001469360117372940860783 0.001530100533256396671752 0.001365499335519281681739 0.000362094480068012502996
126.000000 -0.000519792883164363513082 -0.000034321436502861856247 0.001477916726279513218167 0.001548777305190696378795 0.001414753825932614332561 0.000413961935065931168135
128.000000 -0.000537648977906093070503 -0.000044777236601652165146 0.001488878571431542178344 0.001567958830799071404116 0.001458678546617573831834 0.000458402011386905043015
130.000000 -0.000551886962152558276790 -0.000052030822455768916811 0.001501522341268576908949 0.001587244685126377530607 0.001497708955018705115347 0.000496098621494441786167
132.000000 -0.000563383689258735464479 -0.000056907850434542953002 0.001515342192170383590205 0.001606413521247879172549 0.001532405395140474082052 0.000527845711515949117185
134.000000 -0.000572823190602185700927 -0.000060029900262745113342 0.001530005682025243002667 0.001625375792719594260707 0.001563376794364872927195 0.000554459706355471277500
136.000000 -0.000580737322698255493611 -0.000061863965923528350618 0.001545302247281192184469 0.001644126128646850428308 0.001591228024758074366743 0.000576724257651579897375
138.000000 -0.000587532434026643603231 -0.000062751448673881911355 0.001561114446032452239901 0.001662716530722329428757 0.001616530762264796776059 0.000595360125247319424933
140.000000 -0.000593516130212802550149 -0.000062937927258920685521 0.001577391323367604864664 0.001681233905961256394623 0.001639805392560652209238 0.000611008264290502584384
142.000000 -0.000598926279833402385941 -0.000062606243933510912891 0.001594117310436418471706 0.001699776052591260404323 0.001661511790629944607459 0.000624226241476284900676
144.000000 -0.000603938251000393148786 -0.000061880430643730416785 0.001611311787061582177435 0.001718452084858497269301 0.001682050594269537914169 0.000635487597535361803044
146.000000 -0.000608687945048193355772 -0.000060851207904729386121 0.001629008776643486216054 0.001737368484238373559855 0.001701765665829776128307 0.000645191921109021450549
148.000000 -0.000613276127143679104098 -0.000059579601504499081932 0.001647254146458285075511 0.001756628184939419560009 0.001720949191868606986330 0.000653670579491263644203
150.000000 -0.000617781827885800793355 -0.000058109083742248286068 0.001666098526845667974691 0.001776327732095582794675 0.001739848802276680638304 0.000661196117926996364093
152.000000 -0.000622263957775738563161 -0.000056466244109528744761 0.001685598082955322906881 0.001796558801359936057007 0.001758673508163817542777 0.000667992035270018199265
154.000000 -0.000626769217339385423422 -0.000054669766173589668366 0.001705809018646948539699 0.001817405795725678509592 0.001777600041651774317314 0.000674239833778040838566
156.000000 -0.000631333469851796556457 -0.000052729584942749229185 0.001726789705704241846551 0.001838948719574024252485 0.001796776397383208949757 0.000680082395386396297045
158.000000 -0.000635987084996881462187 -0.000050651978364518611593 0.001748597733847290398856 0.001861262963264351125506 0.001816332619178042534491 0.000685639780837634391433
160.000000 -0.000640753964166228826352 -0.000048437958453826529016 0.001771292932008617466641 0.001884421416177614562112 0.001836380071740182241130 0.000691006854150967163471
162.000000 -0.000645654531837730927442 -0.000046086161105480693732 0.001794935415833062968688 0.001908494786562958157872 0.001857017389949468851723 0.000696259739352337887058
164.000000 -0.000650706313572302808175 -0.000043592631578129610440 0.001819588069447515901733 0.001933553858196154946747 0.001878333423257716244467 0.000701460494915295156883
166.000000 -0.000655924933986504893335 -0.000040951988383843846559 0.001845314958612196808846 0.001959668802985539085709 0.001900409529756884449356 0.000706658575097956868916
168.000000 -0.000661323991534191351661 -0.000038156048175960649072 0.001872183584587130576390 0.001986911824692232098055 0.001923323222528291369729 0.000711896448543937942696
170.000000 -0.000666918858504526000652 -0.000035198931074507739585 0.001900262026609469186850 0.002015354764957744300446 0.001947146566183767047234 0.000717206615577547883233
172.000000 -0.000672720644081407481013 -0.000032068620512929293161 0.001929625523466621311516 0.002045074976283080877421 0.001971951448165824329062 0.000722616712685211770584
174.000000 -0.000678743031552539542034 -0.000028755496428377770314 0.001960350752481404036642 0.002076151296699643624549 0.001997810043352617106333 0.000728152292760187651137
176.000000 -0.000684998912077701589685 -0.000025247679789738251008 0.001992519788873422636327 0.002108667006156388166321 0.002024794077064832279605 0.000733832386050815572813
178.000000 -0.000691501223548036058307 -0.000021532516049802231863 0.002026219496246204395534 0.002142709730812464383881 0.002052976936333356094977 0.000739674929319436786149
180.000000 -0.000698264011030706494183 -0.000017596016588580764959 0.002061543723883684647857 0.002178373744141017843978 0.002082436889312548090880 0.000745697597095117841771
182.000000 -0.000705300679042928941459 -0.000013422572338400114075 0.002098591618564324672719 0.002215758036319010262916 0.002113252791843003419031 0.000751913530057041223399
184.000000 -0.000712625031830797805478 -0.000008994551833172248712 0.002137470351690771378644 0.002254969329307953632840 0.002145509550887028573513 0.000758336971751107178502
186.000000 -0.000720253619289600304117 -0.000004295269887014529065 0.002178293239031166370762 0.002296120587974202331000 0.002179296556369315473328 0.000764982283389704811709
188.000000 -0.000728202180812643671236 0.000000694778132067329357 0.002221181334831308969852 0.002339332205645144532880 0.002214707419723672271461 0.000771861261208356690296
190.000000 -0.000736487708315809838817 0.000005997300661727993390 0.002266266913152151403488 0.002384735185947760901376 0.002251843641672223502587 0.000778987353472250141327
192.000000 -0.000745128350438707524363 0.000011634762803183781410 0.002313689799954091966955 0.002432468038247173787447 0.002290811464312301516666 0.000786372461657012123554
194.000000 -0.000754143371338988508998 0.000017631773124463741883 0.002363601557539537437874 0.002482680922899615800353 0.002331726480664973646245 0.000794031033385157866342
196.000000 -0.000763553237398644510728 0.000024014869312593597187 0.002416164292101951292790 0.002535534246883492260488 0.002374711255325453324039 0.000801975668398433190996
198.000000 -0.000773380358449857955964 0.000030812196965312524930 0.002471552347479284619108 0.002591200429377231353317 0.002419896983664191272845 0.000810220200029154865792
200.000000 -0.000783647525633804006850 0.000038055893929443544189 0.002529955286245965263153 0.002649866627475548370302 0.002467426011150777778042 0.000818779601401056723528
202.000000 -0.000794380421026482145229 0.000045778161500046904864 0.002591573292825133725814 0.002711730932890560243770 0.002517449113874827264919 0.000827669369671861217090
204.000000 -0.000805605367872147927824 0.000054016008482944014924 0.002656625779918413837732 0.002777009760761245654032 0.002570129711946216814061 0.000836905083877673996139
206.000000 -0.000817351962435917218583 0.000062807224696206448650 0.002725346096920162886068 0.002845933695059970659769 0.002625642567777360797399 0.000846503962242796804787
208.000000 -0.000829650749602632597325 0.000072194051241659048536 0.002797986230966981353874 0.002918751436411599377296 0.002684175732251721513411 0.000856484703434355165545
210.000000 -0.000842535644708688503945 0.000082220539552506564083 0.002874816669846816993145 0.002995729917951044096736 0.002745930656881843782979 0.000866866420117716539144
212.000000 -0.000856043246257781002134 0.000092933793122767195606 0.002956127459453111207266 0.003077155569563491677165 0.002811123738201960937932 0.000877669572794662479313
214.000000 -0.000870212065199500294649 0.000104385386742629983803 0.003042231312450815929743 0.003163336973035127831083 0.002879988411771287632607 0.000888918723849559111461
216.000000 -0.000885084715923751337747 0.000116628286882070625482 0.003133460474511657635477 0.003254601964893342070512 0.002952770860860362122507 0.000900635621640046512247
218.000000 -0.000900708103096429352728 0.000129718660013688607277 0.003230171078382920377137 0.003351302561548637030941 0.003029738599905262320944 0.000912849222506623126337
220.000000 -0.000917131817660712207393 0.000143716640067776616884 0.003332744195433799249545 0.003453815145172752128222 0.003111176238305419020080 0.000925589212816078010446
222.000000 -0.000934411949729885347830 0.000158682611445360132992 0.003441583116718179621157 0.003562538658924332708039 0.003197386410143927479299 0.000938887383987113710061
224.000000 -0.000952608355714125226363 0.000174680846337069086045 0.003557117842274195099184 0.003677898438086609714942 0.003288692389488570913536 0.000952780271385492280242
226.000000 -0.000971786968078778581014 0.000191776674880004963705 0.003679801440159534160063 0.003800343312455264216387 0.003385436999133332406503 0.000967309470926467165376
228.000000 -0.000992019248707140836527 0.000210036629663076595230 0.003810111583991336765831 0.003930346667814632946603 0.003487981921017876789370 0.000982519211343065501305
230.000000 -0.001013387035229055925523 0.000229523785354386698071 0.003948545957256293682802 0.004068403644336867665265 0.003596710304108080222263 0.000998462562560070016060
232.000000 -0.001035977353486882334907 0.000250303120062708641270 0.004095627113813365971495 0.004215034134011415127563 0.003712024828261774669902 0.001015197846297492172488
234.000000 -0.001059888612336882737774 0.000272433977597654559868 0.004251895210821849020733 0.004370777779562047028750 0.003834348725797428244361 0.001032792447262282590353
236.000000 -0.001085230544093983371529 0.000295971442692695885408 0.004417910467565648244270 0.004536196160708667879380 0.003964126807619391609783 0.001051322328984788129908
238.000000 -0.001112122812696846345035 0.000320967775798145632787 0.004594256485938343938236 0.004711876122797106075657 0.004101828254300710768776 0.001070872528257207564883
240.000000 -0.001140698584065849389979 0.000347471109551172679334 0.004781545395609548484983 0.004898435660060602991894 0.004247952839624897537762 0.001091539223064651913456
242.000000 -0.001171103416646782557561 0.000375530177111328266216 0.004980430416944879763730 0.005096536089536399596889 0.004403039732119793693566 0.001113428828217467771861
244.000000 -0.001203494072397956601503 0.000405200655520208193223 0.005191626054522153685400 0.005306901466742162433443 0.004567679582161342406732 0.001136653349781039041080
246.000000 -0.001238039231971182520253 0.000436553548568800037482 0.005415938048832691711909 0.005530347827321649249732 0.004742536155322414105628 0.001161330714061967021855
248.000000 -0.001274912006907752588802 0.000469694661197403245077 0.005654311567355215298325 0.005767827702218466211226 0.004928372112207759017655 0.001187576105326952537883
250.000000 -0.001314288327653323354763 0.000504781427517137838180 0.005907884423977361430802 0.006020480618705370719212 0.005126081348910255068574 0.001215495535480427173949
252.000000 -0.001356337674938389893653 0.000542049715007964904440 0.006178055064737291053600 0.006289695055710713481045 0.005336722273702633814740 0.001245172443309799795511
254.000000 -0.001401216661971902257069 0.000581837731511460542685 0.006466549358514830925238 0.006577170148462327739503 0.005561554147348591464750 0.001276658624483671764654
256.000000 -0.001449062445826742586905 0.000624606799518784283620 0.006775478458096092018725 0.006884967181375546176059 0.005802060290469977441030 0.001309959814921960721476
258.000000 -0.001499991093841148174712 0.000670949285907452880502 0.007107366942948328304708 0.007215533480354554413116 0.006059955781658751296226 0.001345028866388176327917
260.000000 -0.001554100582110707392397 0.000721579196712594968244 0.007465138146047219959434 0.007571685942839904114032 0.006337168721300402880747 0.001381764633926460322452
262.000000 -0.001611488955763293925288 0.000777287554241336406044 0.007852023940913974847655 0.007956525425070342522060 0.006635780814573885751095 0.001420021307991112691910
264.000000 -0.001672283187419470670831 0.000838863833868742198550 0.008271388454322591010648 0.008373271330666027384426 0.006957923219171224110680 0.001459640457465176746621
266.000000 -0.001736685860133026400309 0.000906973021823118227998 0.008726451613901096276971 0.008825006421058387631740 0.007305625372414486888573 0.001500501041645560052276
268.000000 -0.001805036220746095761841 0.000981999218705367511034 0.009219933656625423773479 0.009314351852893261451971 0.007680633336994220801419 0.001542592429586376202161
270.000000 -0.001877882636108963235189 0.001063869592077458948315 0.009753657950437876617000 0.009843108491872013324220 0.008084223437227396405480 0.001586110597736220930234
272.000000 -0.001956046079318679142139 0.001151900919685353453376 0.010328192225503698975508 0.010411937351008518706785 0.008517053570214637783775 0.001631561658956046535068
274.000000 -0.002040663842311368943172 0.001244706951081725031932 0.010942624441137900268006 0.011020168335096801326412 0.008979106073438878829474 0.001679857233680464613512
276.000000 -0.002133184687974804937677 0.001340224188505484545150 0.011594582492245656540897 0.011665833076781144395095 0.009469768865748356620471 0.001732378814286281328017
278.000000 -0.002235301139150460986854 0.001435881098432457893960 0.012280542399273404463589 0.012345957591771958977711 0.009988057195204343846617 0.001790981114212768232630
280.000000 -0.002348825738335565561227 0.001528896903526780160984 0.012996402418490786076499 0.013057094496440657671599 0.010532960264065987024407 0.001857922392998431456237
282.000000 -0.002475520901183813488045 0.001616682854713935840046 0.013738274241304145040221 0.013796048351261828643355 0.011103868161149660701015 0.001935701800658357714033
284.000000 -0.002616909661339470328373 0.001697292326590833138125 0.014503417220061903813999 0.014560728245792227061872 0.011701038160950196290178 0.002026808678798921320441
286.000000 -0.002774100782443202507094 0.001769866655522446584684 0.015291258891902109740002 0.015351080585117454074817 0.012326077343966639413009 0.002133399651528159780833
288.000000 -0.002947650976231010969825 0.001835039371999083127746 0.016104471243670225033551 0.016170076599680956175309 0.012982436116430916966946 0.002256939065278971805195
290.000000 -0.003137476921895498028353 0.001895272500784157560655 0.016950050490095808913837 0.017024704620371953339708 0.013675884977640637846230 0.002397830948965330027933
292.000000 -0.003342807176413744880278 0.001955096529191417166482 0.017840261282075012272408 0.017926826110167340400103 0.014414880046626952006528 0.002555093858108821013725
294.000000 -0.003562168924930194605777 0.002021110105165503482982 0.018792900946915137849746 0.018893356149455850512275 0.015210436466000867156145 0.002726149175065202111962
296.000000 -0.003793438721529147298478 0.002101300358275623968163 0.019829389067693676401705 0.019944310389304116537534 0.016074492295725384405358 0.002906890295092271446487
298.000000 -0.004034216148334880160109 0.002202541288923779132930 0.020967424207445378714354 0.021095609698169270201928 0.017014713171379671624583 0.003092410548247425186585
300.000000 -0.004283321482489540164840 0.002324387919456276548058 0.022203966344124713427899 0.022342827545985790432814 0.018023667340532595337876 0.003279055999581361596773
302.000000 -0.004544318224391981873855 0.002449082287655384316399 0.023490889793541275265554 0.023638724836969552539623 0.019065478744329747429198 0.003468002094921724971083
304.000000 -0.004829239082040060436485 0.002535211337682222350332 0.024723713373400419551773 0.024884157173080772434970 0.020073399647224043906846 0.003668728111217214264000
306.000000 -0.005157403186973897810108 0.002526187100281344043162 0.025766789829505372388940 0.025953084547112478114306 0.020969592232716591229114 0.003900149591238645605668
308.000000 -0.005548146519260548081842 0.002370749501581099691339 0.026500921815601256870121 0.026736828467489339583585 0.021694426203726684121431 0.004189110770929106372651
310.000000 -0.006013439082065990919090 0.002038725118715982703027 0.026851632747647142390734 0.027169126893598950084341 0.022220854397431471366486 0.004566545826981138062051
312.000000 -0.006554007284765849504493 0.001525103492659650146826 0.026785777913888985518609 0.027221936383933151293313 0.022548707818051998835740 0.005060605322831662582217
314.000000 -0.007157930497931164030845 0.000847569503047067383111 0.026298329799490722386013 0.026892274092378369576561 0.022691094570009593539561 0.005686906702932250853855
316.000000 -0.007802020926380581408721 0.000040632710170972938496 0.025406129451266367541562 0.026195467757611529124873 0.022663886804358764764933 0.006440806540609831515320
318.000000 -0.008457097553295111341809 -0.000853511851318890105503 0.024144742927569753931927 0.025161918723833356231756 0.022480956955274092323727 0.007298025416794456238234
320.000000 -0.009095371262982090629357 -0.001795228243330440707354 0.022559735508222933386691 0.023829859091064890114220 0.022152436264322235281998 0.008222185016442026470052
322.000000 -0.009695667949230119680992 -0.002753679332189972774059 0.020698225876668127631852 0.022238794728683886764431 0.021685130549743220074177 0.009172095189906656273471
324.000000 -0.010244926702204431440135 -0.003707118277923515062972 0.018609740044506346140496 0.020431267673234006221339 0.021086678251383942500619 0.010106888169380276801257
326.000000 -0.010737735261807389991473 -0.004641088103448317431221 0.016349719939784360112078 0.018456764259194867461300 0.020370089097576347253460 0.010990490846137524957871
328.000000 -0.011174062412885165523901 -0.005546551257541464108325 0.013977567409969459191754 0.016369862822631930238115 0.019553372194990117222124 0.011792699324549229741854
330.000000 -0.011555038949573073064903 -0.006416896688482611257887 0.011553163043939673054750 0.014225978277882977279800 0.018655478706709083258630 0.012484792978566345775238
332.000000 -0.011878753150020333537173 -0.007244015870979952573250 0.009136222787949489776427 0.012079297476986022852330 0.017693124852769751692572 0.013035112962804100075753
334.000000 -0.012137438287690994684342 -0.008014550478696251534227 0.006785918429048137454074 0.009981256551299090562512 0.016679446694643478704689 0.013411036356238918015871
336.000000 -0.012316219480972490779580 -0.008706271632510103122837 0.004561908415036870258208 0.007981433529374967056347 0.015627292488169176182256 0.013588546227272440408695
338.000000 -0.012394392055369367680595 -0.009285841576218645254670 0.002529030731752284020392 0.006133494974577664848869 0.014560304674417655010354 0.013567349928867331390614
340.000000 -0.012351808755326107794326 -0.009714632000599864730672 0.000754370946015466350976 0.004495134626021001118812 0.013520922636093753513298 0.013381961776327104540751
342.000000 -0.012178503484612308860324 -0.009963749844227817037412 -0.000711176950102470760602 0.003112763263734489270484 0.012560001864474890434509 0.013093343544512119763779
344.000000 -0.011879216248816260731447 -0.010025898769273133143143 -0.001851398845970894007154 0.002003559184958730865489 0.011713390523491866782035 0.012762096008110250869305
346.000000 -0.011469017377832686765959 -0.009913706961507000314793 -0.002684043602062736576935 0.001153759956962179282144 0.010987908478710525436717 0.012424514918445659153456
348.000000 -0.010966266884143999887913 -0.009650023645669093472210 -0.003246000595385881842825 0.000531026880497542587596 0.010366088093580975298957 0.012088223495014011055204
350.000000 -0.010388560366056159151027 -0.009259931386921762749842 -0.003580074988605671214292 0.000096869992172072090985 0.009819333910563035963670 0.011743191753068206797939
352.000000 -0.009750478880041922938315 -0.008766549521401966957312 -0.003728845392844264659826 -0.000187236843700654663220 0.009317124097687742856344 0.011373474001238784852896
354.000000 -0.009060128997876133044587 -0.008187526545485135018310 -0.003731122337562499131219 -0.000356955912778564971814 0.008829461310687465591673 0.010961402181780533632294
356.000000 -0.008316185592746334898084 -0.007531807602188854075531 -0.003616764417814633762044 -0.000440928693186206505095 0.008328252684875206424131 0.010487355099430531804594
358.000000 -0.007512127887526984584832 -0.006802059628639105237635 -0.003403260051371102216239 -0.000456759169912660380024 0.007793135388457520136563 0.009933498511964870478219
360.000000 -0.006645571325020427529140 -0.006001779452675851285470 -0.003097534279884650489784 -0.000410827207930281068128 0.007217657194620254526574 0.009290549211581653615832
362.000000 -0.005723140756131264196560 -0.005139674833987644894662 -0.002701757574894587607406 -0.000302929460087303012699 0.006608084284292541077388 0.008559760602319560138240
364.000000 -0.004761964113170025041100 -0.004233031600231667267165 -0.002223149345823351944601 -0.000135201107638160993507 0.005976175883500202921927 0.007750748769181352304525
366.000000 -0.003793006692729677682002 -0.003313577724825895326477 -0.001685116121471454163697 0.000078363568433058769492 0.005332810934819734102752 0.006880191143343988499637
368.000000 -0.002861506167295042608184 -0.002428804879532133441378 -0.001130490067713038138467 0.000309075401165094163208 0.004686297591482248454942 0.005972123682693528633203
370.000000 -0.002019090820955423293964 -0.001633021932901972811392 -0.000612621259883846256203 0.000519984346681427733738 0.004043881554060855393340 0.005056723418343607098779
372.000000 -0.001311662726814586928462 -0.000973828135814144043962 -0.000181338733015609166518 0.000676212453289142261144 0.003413656839073335273749 0.004166790994524828019296
374.000000 -0.000767834619856227443453 -0.000479914495256936169364 0.000129901821690980287310 0.000754884275891558125492 0.002806627229955028883512 0.003333950113629589265957
376.000000 -0.000390709539118571063786 -0.000152879168381878560636 0.000312957407708811257037 0.000752478065381177252738 0.002238711860008081241946 0.002586217314796227743218
378.000000 -0.000158708606669859529940 0.000031355064064285005361 0.000384810647137420280915 0.000684735069262941311967 0.001729389988468554633858 0.001945324436816450210108
380.000000 -0.000035566432202691677174 0.000111651812642657463181 0.000378080124373192285724 0.000578544763976400651384 0.001295791918075021083995 0.001422546420621326407688
382.000000 0.000017589828901530073473 0.000128774977673004847704 0.000328802441613191165793 0.000461551380575481108755 0.000946479751419310416476 0.001016271194291214208238
384.000000 0.000032837774541296779122 0.000115504080044832047329 0.000266141966658353147385 0.000354030300879322294694 0.000678969176233415309431 0.000713570628157825953032
386.000000 0.000030986803629044187879 0.000092147913149659372916 0.000207096866779281254655 0.000265569138519169175693 0.000482112829190992216947 0.000495260020170908642732
388.000000 0.000022745776337061666549 0.000068204341229292000785 0.000157932228644581571734 0.000197231939047421821892 0.000341169506635454508441 0.000341474240331547554232
390.000000 0.000012828578866809031318 0.000047029594745485749877 0.000119100391922034303947 0.000146067232270257222823 0.000242078017803348295592 0.000235068909952891309627
392.000000 0.000003309691578828770909 0.000029536847144085095227 0.000089235038406784366965 0.000108440129717514221553 0.000173458130240372094709 0.000162702265608296345149
394.000000 -0.000004770529983003125896 0.000015869600819164931047 0.000066833966088672360113 0.000081258192841065924185 0.000126660437656032573168 0.000114338806225655980849
396.000000 -0.000010915291233608280812 0.000005850886171469109806 0.000050573954423184946407 0.000062068313441595733462 0.000095218083069923073751 0.000082532397555962503863
398.000000 -0.000015125689055350707724 -0.000001039416657445409439 0.000039127844466007382046 0.000048798238831779205645 0.000074310853046073271347 0.000061847595270920249343
400.000000 -0.000017708525646466028223 -0.000005482191291422691955 0.000031273236266116226378 0.000039761689550271260161 0.000060457534028468636522 0.000048457671991767143304
402.000000 -0.000019073063996899876604 -0.000008165887649702084026 0.000025935713516059849689 0.000033613450793053003759 0.000051198738257736180147 0.000039744015682101333149
404.000000 -0.000019588969890931456533 -0.000009650889349979561004 0.000022289525056250488019 0.000029371393067657260362 0.000044867653628024984735 0.000033969618677403815206
406.000000 -0.000019566781414212872222 -0.000010368782947050393184 0.000019745221996848670289 0.000026362248612383158252 0.000040398275469151079134 0.000030040036515464975305
408.000000 -0.000019220430102794815863 -0.000010616578942611292009 0.000017895145267938297333 0.000024129597590760403620 0.000037087847160605967394 0.000027245266369648253087
410.000000 -0.000018681329005829517415 -0.000010579021744082288354 0.000016480417401659129404 0.000022387151794177048497 0.000034510391747719306084 0.000025164986480474061173
412.000000 -0.000018062043313211345651 -0.000010400066867909581192 0.000015321577408284432157 0.000020944512796636091467 0.000032405842605718778707 0.000023544454863624451229
414.000000 -0.000017404959897253450803 -0.000010139387704377205939 0.000014336404886540076478 0.000019702018504613238932 0.000030603489312521305922 0.000022207137730706508297
416.000000 -0.000016731436424747394350 -0.000009832093802801147080 0.000013469594272544525444 0.000018598273257162012162 0.000029003863221336994313 0.000021046236056553012259
418.000000 -0.000016065053970858638393 -0.000009509279986894774884 0.000012680922388118627287 0.000017588727758160824395 0.000027544916190121195146 0.000020010799607122247887
420.000000 -0.000015410353570110662109 -0.000009181053906517168189 0.000011950354877744951578 0.000016652366257096004305 0.000026196834188086362191 0.000019055394999790667865
422.000000 -0.000014768708428077725672 -0.000008845389187513709282 0.000011282639804254353992 0.000015788590657713364590 0.000024947447124224916522 0.000018177216126162050588
424.000000 -0.000014135895277514149172 -0.000008503726299011624894 0.000010665666345399733064 0.000014981097974185130143 0.000023765704140299917778 0.000017345768133085557455
426.000000 -0.000013522988639508433148 -0.000008161343182546962471 0.000010104099414143518035 0.000014236090383466408005 0.000022661694092139959882 0.000016566043814424690660
428.000000 -0.000012928971862623572954 -0.000007823363401763036963 0.000009588419487455385697 0.000013542701462460295027 0.000021617687414495063666 0.000015822683667128875510
430.000000 -0.000012360083490911606159 -0.000007498431170184352757 0.000009091372572533447724 0.000012876776017205217274 0.000020625612433001085084 0.000015130498915973305868
432.000000 -0.000011802575459838119938 -0.000007172379949864780127 0.000008633486038515919271 0.000012254451611647878626 0.000019680139897872374517 0.000014459631972873943133
434.000000 -0.000011278342806339466806 -0.000006869449980072425837 0.000008194085762392420042 0.000011658840159428158811 0.000018779614958633523042 0.000013825579714267118749
436.000000 -0.000010771839566473262394 -0.000006572918822748213087 0.000007777632522370213431 0.000011090826869308599226 0.000017915716695464891013 0.000013217901556333703280
438.000000 -0.000010280542992018224094 -0.000006278354139077085583 0.000007391588114975802671 0.000010557602107167349630 0.000017093721881466557170 0.000012635491294790052568
440.000000 -0.000009803811313897898874 -0.000005989829120636044226 0.000007026904477288311008 0.000010050182511615386076 0.000016301924533040852071 0.000012071960857009753150
442.000000 -0.000009340565743217745824 -0.000005708539790184078241 0.000006679500419201641375 0.000009564144532777424428 0.000015540469439341552809 0.000011523924604090298582
444.000000 -0.000008890057743815572811 -0.000005433145900771085193 0.000006349132700604482889 0.000009100238032321395244 0.000014813942302157687977 0.000011011098942103935276
446.000000 -0.000008464725987179676827 -0.000005179397948894570645 0.000006019291524890079451 0.000008643064400076307422 0.000014100474092855797589 0.000010502155113850478806
448.000000 -0.000008041380809075524789 -0.000004914035426968739994 0.000005743415321162431196 0.000008238162782653252189 0.000013431849130747349882 0.000010013287721124256502
450.000000 -0.000007632481836643183404 -0.000004655113381814658350 0.000005483744951764722323 0.000007854187456429152986 0.000012786910723787575005 0.000009527697891597610897
452.000000 -0.000007233975468408381749 -0.000004400587680496047106 0.000005238818644641271711 0.000007486707874106861902 0.000012163192127028587991 0.000009057988710681739815
454.000000 -0.000006858531478681775661 -0.000004159699674848032069 0.000005005142692237112489 0.000007136899445260365872 0.000011569013251327285488 0.000008609348852439990907
456.000000 -0.000006509333699098557405 -0.000003938769927439555206 0.000004778257674907480652 0.000006801522330382625450 0.000011006373410122681801 0.000008182938444582863857
458.000000 -0.000006196065700627190145 -0.000003754980560289856625 0.000004534247897023996584 0.000006461279833830545750 0.000010465868667614550337 0.000007786440480955241395
460.000000 -0.000005894218506257435589 -0.000003574911027464384272 0.000004305877147464083358 0.000006139310666798127139 0.000009949634293293245545 0.000007397509459621911509
462.000000 -0.000005618345352997442534 -0.000003416486745155335162 0.000004077225092045907146 0.000005823600097297028471 0.000009457524027006001754 0.000007039969406433706833
464.000000 -0.000005346673807234107570 -0.000003250828087313807703 0.000003876881622393866646 0.000005536033561398688352 0.000008985739673075637102 0.000006687949020394624499
466.000000 -0.000005094836288923221272 -0.000003102863686887005447 0.000003681134511186716701 0.000005262788175089174592 0.000008549941752578463282 0.000006354184742252836795
468.000000 -0.000004861695427823816627 -0.000002973879010309420190 0.000003476637801368436143 0.000004987139433025859356 0.000008128369547908359546 0.000006048027973625239156
470.000000 -0.000004627445811180953554 -0.000002830616163229916005 0.000003304073882098300469 0.000004740986439639062268 0.000007730182287682419641 0.000005762261373673756516
472.000000 -0.000004402041777962861087 -0.000002690860991085077674 0.000003143429821703148219 0.000004509392535072974534 0.000007349723973977241973 0.000005481957165258484526
474.000000 -0.000004191020903990417305 -0.000002561169299640456278 0.000002993952852963017713 0.000004294812101635562390 0.000007002405275453361514 0.000005222080003617117643
476.000000 -0.000003990136554256549724 -0.000002436452971577927258 0.000002860536488818725724 0.000004097367141589413025 0.000006670797349995934732 0.000004965253894349984232
478.000000 -0.000003792233232518740489 -0.000002308364915245549022 0.000002734642855951867848 0.000003912604365964328463 0.000006365071879820434001 0.000004728904485918281776
480.000000 -0.000003605938403124993832 -0.000002194856273800970483 0.000002599709052887136654 0.000003721302339602337376 0.000006058737254798774879 0.000004510738495905529311
482.000000 -0.000003432423968081116608 -0.000002091717665427356755 0.000002473211099748266383 0.000003538189652502644182 0.000005753273794276394532 0.000004282603759392944577
484.000000 -0.000003271298720961265014 -0.000001996832376434482808 0.000002348963800824702887 0.000003364544583255153196 0.000005479822416814024529 0.000004079258740139878064
486.000000 -0.000003100154164129375542 -0.000001882318677255632692 0.000002257329827752340870 0.000003218010403796290255 0.000005217308238502660299 0.000003878566702836566302
488.000000 -0.000002927645776848656462 -0.000001767167395071538697 0.000002163823646665264283 0.000003072663194954166871 0.000004958392986769553577 0.000003674105848553199907
490.000000 -0.000002786814141422882567 -0.000001678845499757871618 0.000002072913318403398928 0.000002935550331800160931 0.000004722976376808815026 0.000003493887833455283102
492.000000 -0.000002655762133349502537 -0.000001604177635423528444 0.000001965363893737891115 0.000002787706934085907314 0.000004489988111084324635 0.000003313770828202340917
494.000000 -0.000002518098515445288068 -0.000001510582041730708811 0.000001898432935528193274 0.000002675587435899744342 0.000004279930762624067493 0.000003143615186352922302
496.000000 -0.000002401849620181343853 -0.000001449018166198644743 0.000001787833851547848558 0.000002529245582249816520 0.000004059767475911462021 0.000002983642012255954769
498.000000 -0.000002295817860231856310 -0.000001389937736443001524 0.000001699551160633533920 0.000002406390739120773687 0.000003865756863631088055 0.000002841165541736526747
500.000000 -0.000002171707720425302387 -0.000001309253969298605900 0.000001624795496263317196 0.000002295118252448009688 0.000003679267449624885482 0.000002702877026725220165
502.000000 -0.000002062319322953626256 -0.000001239424916067529817 0.000001554860324110397826 0.000002191715976465590773 0.000003501542960324258443 0.000002568553622150008229
504.000000 -0.000001972359523974096126 -0.000001192567082035543243 0.000001458870498893885774 0.000002070233455953895063 0.000003329649735730149553 0.000002458211123688212401
506.000000 -0.000001878582742158674654 -0.000001133926442642631033 0.000001395690163973268420 0.000001978286801095796942 0.000003176129325095282669 0.000002335319820441306083
508.000000 -0.000001791619900606623721 -0.000001080293130503819345 0.000001336805570426251690 0.000001892769778262055652 0.000003038873361553311213 0.000002232450085311183282
510.000000 -0.000001717820951702262915 -0.000001044779081989960404 0.000001264948929112428894 0.000001795650663074348408 0.000002886636198874833672 0.000002121502866120188422
510.580000 -0.000001692830767830700909 -0.000001029392848149569438 0.000001248202075781686026 0.000001771314988786683371 0.000002847674256768003147 0.000002095420439069928509
