0.000000 -0.000000000000000000000000 -0.000000000000000000000000 -0.000000000000000000000000 -0.000000000000000000000000 -0.000000000000000000000000 -0.000000000000000000000000
2.000000 -0.000966405825481038600888 -0.002389758058763953845610 -0.002810279305107318912477 -0.003343487182674498379292 -0.002628811771115481359107 -0.000713607175848634590377
4.000000 -0.001243846345026323107694 -0.003511989505105393358231 -0.004242989977855297564768 -0.005399264270651909711218 -0.003719473685105193546535 -0.000296749044275959866085
6.000000 -0.001067375861261769332336 -0.003751796883166609239413 -0.004764332724046109988902 -0.006438827237319887965283 -0.004234270139840051044855 0.000163767579458901156152
8.000000 -0.000803349418214956124094 -0.003843906468007258613734 -0.005206998690048486241877 -0.007415018172812953833883 -0.004847977917926795179970 0.000672118318410115417501
10.000000 -0.000750932177559558581073 -0.004478591004004669508254 -0.006285510032525296920947 -0.009165247407222168810059 -0.005920941678682743562756 0.001291746596855530360495
12.000000 -0.000820979209208880255678 -0.005809673812220590705113 -0.008375301292868966851479 -0.012361404297207397029457 -0.008168251252697588185581 0.001903006506697021852151
14.000000 -0.001010857337612766073884 -0.007886159403587866476015 -0.011579008258107571782691 -0.017112394483614467438626 -0.011368836214660844874391 0.002754160236307928808636
16.000000 -0.001847482364532632929249 -0.012001619609315341066780 -0.017316214249287451704129 -0.024948142492177891732519 -0.016313489615716561531578 0.003757250233835833248125
18.000000 -0.003428382744718464630873 -0.017511263217560770616421 -0.024444613374463727839547 -0.034046837405422754330164 -0.021268770199066096282525 0.005325127395284744852288
20.000000 -0.005359662349308434887984 -0.023796870765673567432730 -0.032364455939454091215612 -0.043891629870234337429391 -0.026431071895982947983494 0.007047640428565694198371
22.000000 -0.007319164117595826704599 -0.029863776505117824167090 -0.039833244333614875598570 -0.053033550500628967583339 -0.031114399948031883080812 0.008632455376148054360108
24.000000 -0.008894528145791199061354 -0.034758923831631018119825 -0.045690801101371018855257 -0.060045021188674656265061 -0.034253784521535525497971 0.010353544698803470933135
26.000000 -0.008039776145384064376387 -0.034080228611616074363422 -0.045354895475087669831638 -0.060770262084818463255154 -0.034589178366372250184035 0.011745983238278183413694
28.000000 -0.007884495227357126226342 -0.034841196533226766185454 -0.046536187238205434235638 -0.062937234678619183303461 -0.035337970230503418234136 0.013212145341523559224917
30.000000 -0.006573046730614615605626 -0.034501759805488627086412 -0.047081748793518306273054 -0.065306511994632873707722 -0.036749007997124633062569 0.012821059508074028263080
32.000000 -0.003848147810269319634563 -0.031075212049429139227197 -0.044380502757277034975303 -0.064305924551842877368024 -0.036928386091266043878001 0.011466279328653653998837
34.000000 -0.001222590594919918194697 -0.027448355278531295919908 -0.041396263366741452294217 -0.062659074127921959851406 -0.036702867334374111862871 0.010035796418114454123249
36.000000 0.001119036112681804544591 -0.024411464995140002426366 -0.039110658004829365608224 -0.061361336080443459883860 -0.036994319532783905002393 0.007782096283454081019071
38.000000 0.003219834985790383762028 -0.021523169898746266626155 -0.036887056761540658322840 -0.059753518359189038144930 -0.037599882126552172656453 0.004457256299104942788569
40.000000 0.005030069956196964349460 -0.019139369242168000756488 -0.035303755007315480718422 -0.058650368840959185567918 -0.038675059426907555659714 0.000652013611254962668039
42.000000 0.007107312256346721805744 -0.016212262242068297551922 -0.033210428018981955067268 -0.056891522185771689623657 -0.040010202302889201486646 -0.004271393072686769862290
44.000000 0.008962167733973180894225 -0.013373159130819088982745 -0.031194984178086949955233 -0.054977661009406868231064 -0.041728260014332212157750 -0.009469790944645270491797
46.000000 0.011022786202173102607094 -0.009456630519159301209720 -0.027568310833825139527509 -0.050641689771460510205436 -0.041015224180997074399091 -0.013140976731683693193298
48.000000 0.013341100702303518993341 -0.004685672317894073145295 -0.022900056636573112162081 -0.044762587811322814002057 -0.039600087928231067491147 -0.016593432556041121106460
50.000000 0.016072724390889199519439 0.000888000329050481532721 -0.017379965271549883965019 -0.038077023608087443018455 -0.038001628195801911980212 -0.020440522331162919167369
52.000000 0.018521716281050624314242 0.005780106893262368719655 -0.012637752256177884821464 -0.032304977215024566206125 -0.037096834761176464279053 -0.024267554583965945252944
54.000000 0.020401092795487320991077 0.010389714400093539442560 -0.007604558928874377565776 -0.025543210486296673289441 -0.034684584617362582137368 -0.027389674290209910928473
56.000000 0.022596580130137634834231 0.015252186630145287554727 -0.002561102234385818476187 -0.019306196255858061594513 -0.032278281618174697875645 -0.029202992434501431895377
58.000000 0.025069958265726544760499 0.020133702636465383717379 0.002392309742019961115583 -0.013437155351175587847390 -0.029753334053100023715022 -0.030339216106369113618024
60.000000 0.027023562688127212433331 0.024824971425950338732580 0.007408076602741104840777 -0.007540399781371653724349 -0.026469617674262067158475 -0.029214108195924980149183
62.000000 0.027736323238805343782687 0.028392202251090067205430 0.011752252578471006697058 -0.002082161272769640549679 -0.022494875306419019611592 -0.026625091031129290153334
64.000000 0.027890932442993607298654 0.030556090671024240673637 0.014526248613731630038304 0.001448860434084026267698 -0.019553305451503775330702 -0.024209779658644986488625
66.000000 0.027259377797167250179200 0.030632781212721400809773 0.014926954706852478549362 0.002414825564556043625136 -0.019150824742477839945920 -0.023905405207783968213331
68.000000 0.027221715661476353353976 0.031503722180047537271275 0.015956430750826602893433 0.003902320317292097464484 -0.018710336975361077649360 -0.024146156962559717912287
70.000000 0.026657050853102159937436 0.031473962705303594467043 0.016180312583354106853450 0.004631085185581037579061 -0.018755185649869894615183 -0.025017867912988961398568
72.000000 0.024917156525747056333708 0.029647278119339419422129 0.014993427352228395899036 0.004076189302258316493610 -0.018920605668880416394551 -0.025056860679332677160902
74.000000 0.023873076811283901188521 0.028503586294371389270319 0.014250262804096969215806 0.003867118892957741287802 -0.018939358805690521131426 -0.025342118869332512509640
76.000000 0.023340855255943527418738 0.027719042562084413028334 0.013647410102952171537249 0.003698638618103157384848 -0.019246551290491877711508 -0.026082738000758939195256
78.000000 0.022177767462751137028665 0.025987754901918697775232 0.012374895232749108520132 0.003020734336187731045031 -0.019728279067230208854156 -0.026878304474209333690959
80.000000 0.020403811882799997162730 0.023930667895908936532168 0.011341941221514634241530 0.002950187840915985664630 -0.019102803969420233121124 -0.026639108992115887591945
82.000000 0.018433390319283579628085 0.022113070949759665306811 0.010766260269447141401100 0.003485649767439817810211 -0.017350875665507869277659 -0.025088789755998288505401
84.000000 0.016152891344826978553550 0.019910169779126293126970 0.009807989466791429758463 0.003582027574527882080729 -0.015631241486872591434087 -0.023231876174159137027342
86.000000 0.013249069572987104415063 0.016702880527262584098303 0.008077356878577916093898 0.002919474279247490609845 -0.014144888589707131643092 -0.021167705728895779004883
88.000000 0.009688749515506175913337 0.012441373044140677586733 0.005601616693587006638733 0.001659060177620515913466 -0.012565010048989109364692 -0.018652763184299724075199
90.000000 0.005502826458348148222499 0.007259884453842417074976 0.002379367761039522920913 -0.000316440182839812381502 -0.011250276941586747833646 -0.016028348079273595921945
92.000000 0.002727887138549935433507 0.003912838773944113737735 0.000405893109243446047370 -0.001412242147771884106730 -0.009687434963533414489234 -0.013348211852725751572213
94.000000 0.000363205707487314084086 0.001118813209510953476933 -0.001179681187676223218935 -0.002248083295509780386856 -0.008015423950182794243791 -0.010542083031198317202848
96.000000 -0.001249140814857069769692 -0.000779940758391680418610 -0.002135364068210962758265 -0.002619152205842943843817 -0.006450108838376582102991 -0.008310864685086119182933
98.000000 -0.001840672752870942899955 -0.001526576558250043388898 -0.002189769240184762100210 -0.002260852043464322246036 -0.004714496610026917312875 -0.006162799283642141079387
100.000000 -0.001673278100171942403898 -0.001390488348967395615743 -0.001576118953934892933516 -0.001380233142287361604653 -0.002875750964008639241898 -0.004136504839323256778327
102.000000 -0.001451957446159859955667 -0.001192436771666364114450 -0.000996131365539822078922 -0.000600708639900372634926 -0.001259373127080877334538 -0.002232108772220444282280
104.000000 -0.001106308749901413609681 -0.000800367037004603445148 -0.000435086651552608959063 0.000059734327349753079187 -0.000320470235917963170314 -0.001272255817136476235482
106.000000 -0.000665351461419827049787 -0.000195470890910423746164 0.000176988111871844409646 0.000701240101751935763011 0.000277644819921744878937 -0.000713782823232614609295
108.000000 -0.000298719429551803331187 0.000285094985150650948296 0.000655364721921439263332 0.001180921127013124117405 0.000695274293714324737210 -0.000295388034370421546145
110.000000 -0.000131325694757896538475 0.000503068012511137920353 0.000891690440586459455614 0.001443092897967954320315 0.000893703295159748237197 -0.000169701075655239770482
112.000000 -0.000173924446989645652226 0.000462419287692868597600 0.000896630019702200522884 0.001484663436094340108196 0.000980416684760801026427 -0.000091301333859719626903
114.000000 -0.000259742768518521479834 0.000367269259962999569235 0.000851486450906281428126 0.001476157841252745709856 0.001047656957295317560128 -0.000006441317153149487259
116.000000 -0.000329726343425627962860 0.000290237362774623973080 0.000819693887805727724495 0.001477238094382439005658 0.001117252452471887216867 0.000078392640049472018041
118.000000 -0.000386636651005213321988 0.000228308330399708443725 0.000798065955756108408141 0.001484801546934350459719 0.001185600868951430320389 0.000159555535156288369686
120.000000 -0.000432312878683089631127 0.000179493784406129999612 0.000784637792031550292474 0.001497062005042972291854 0.001250523085107774472896 0.000234655534630307644438
122.000000 -0.000468585601674434708199 0.000141756724033244237192 0.000777647716733977198596 0.001512560345555974926357 0.001310706912421277011566 0.000302345831220746726238
124.000000 -0.000497218958262290490480 0.000113092055418459176523 0.000775526363713049168153 0.001530100533256396671752 0.001365499335519281681739 0.000362094480068012502996
126.000000 -0.000519792883164363513082 0.000091684378718720214497 0.000776970852686078303564 0.001548777305190696378795 0.001414753825932614332561 0.000413961935065931168135
128.000000 -0.000537648977906093070503 0.000075983493012917065462 0.000780960376205075803083 0.001567958830799071404116 0.001458678546617573831834 0.000458402011386905043015
130.000000 -0.000551886962152558276790 0.000064715425980695751420 0.000786731208778982966240 0.001587244685126377530607 0.001497708955018705115347 0.000496098621494441786167
132.000000 -0.000563383689258735464479 0.000056864058133473359684 0.000793735325387642559787 0.001606413521247879172549 0.001532405395140474082052 0.000527845711515949117185
134.000000 -0.000572823190602185700927 0.000051638761496519374589 0.000801597325653288219835 0.001625375792719594260707 0.001563376794364872927195 0.000554459706355471277500
136.000000 -0.000580737322698255493611 0.000048425601439574167189 0.000810064733531860783206 0.001644126128646850428308 0.001591228024758074366743 0.000576724257651579897375
138.000000 -0.000587532434026643603231 0.000046758947767144478237 0.000818980307679112299636 0.001662716530722329428757 0.001616530762264796776059 0.000595360125247319424933
140.000000 -0.000593516130212802550149 0.000046290388067841525387 0.000828255094618664212611 0.001681233905961256394623 0.001639805392560652209238 0.000611008264290502584384
142.000000 -0.000598926279833402385941 0.000046751790551001696085 0.000837838588454728884318 0.001699776052591260404323 0.001661511790629944607459 0.000624226241476284900676
144.000000 -0.000603938251000393148786 0.000047950809210628999267 0.000847717752657202189975 0.001718452084858497269301 0.001682050594269537914169 0.000635487597535361803044
146.000000 -0.000608687945048193355772 0.000049741719169506746470 0.000857896006719250834270 0.001737368484238373559855 0.001701765665829776128307 0.000645191921109021450549
148.000000 -0.000613276127143679104098 0.000052020591494141582719 0.000868391114015983219508 0.001756628184939419560009 0.001720949191868606986330 0.000653670579491263644203
150.000000 -0.000617781827885800793355 0.000054709629985314147023 0.000879227211715898722064 0.001776327732095582794675 0.001739848802276680638304 0.000661196117926996364093
152.000000 -0.000622263957775738563161 0.000057756537736892409063 0.000890435337136114240901 0.001796558801359936057007 0.001758673508163817542777 0.000667992035270018199265
154.000000 -0.000626769217339385423422 0.000061123188546706883821 0.000902047198567238503290 0.001817405795725678509592 0.001777600041651774317314 0.000674239833778040838566
156.000000 -0.000631333469851796556457 0.000064785459582114928953 0.000914097157275696480840 0.001838948719574024252485 0.001796776397383208949757 0.000680082395386396297045
158.000000 -0.000635987084996881462187 0.000068726686428514824042 0.000926619446995318417348 0.001861262963264351125506 0.001816332619178042534491 0.000685639780837634391433
160.000000 -0.000640753964166228826352 0.000072939462322447659983 0.000939650062555175331382 0.001884421416177614562112 0.001836380071740182241130 0.000691006854150967163471
162.000000 -0.000645654531837730927442 0.000077421208594555951388 0.000953225286997586756035 0.001908494786562958157872 0.001857017389949468851723 0.000696259739352337887058
164.000000 -0.000650706313572302808175 0.000082174413275573474818 0.000967382945637191085653 0.001933553858196154946747 0.001878333423257716244467 0.000701460494915295156883
166.000000 -0.000655924933986504893335 0.000087205221766541887013 0.000982161316669505780191 0.001959668802985539085709 0.001900409529756884449356 0.000706658575097956868916
168.000000 -0.000661323991534191351661 0.000092523598224086094056 0.000997601498493164585285 0.001986911824692232098055 0.001923323222528291369729 0.000711896448543937942696
170.000000 -0.000666918858504526000652 0.000098139041627202637801 0.001013743049584834394691 0.002015354764957744300446 0.001947146566183767047234 0.000717206615577547883233
172.000000 -0.000672720644081407481013 0.000104068547351468301799 0.001030631856278016109107 0.002045074976283080877421 0.001971951448165824329062 0.000722616712685211770584
174.000000 -0.000678743031552539542034 0.000110327341543627340079 0.001048313201471553568825 0.002076151296699643624549 0.001997810043352617106333 0.000728152292760187651137
176.000000 -0.000684998912077701589685 0.000116934324813043556603 0.001066835951625919693894 0.002108667006156388166321 0.002024794077064832279605 0.000733832386050815572813
178.000000 -0.000691501223548036058307 0.000123909936947814454779 0.001086251562956191962783 0.002142709730812464383881 0.002052976936333356094977 0.000739674929319436786149
180.000000 -0.000698264011030706494183 0.000131277020617968551673 0.001106615723255764769523 0.002178373744141017843978 0.002082436889312548090880 0.000745697597095117841771
182.000000 -0.000705300679042928941459 0.000139061136734191435850 0.001127987366751560111000 0.002215758036319010262916 0.002113252791843003419031 0.000751913530057041223399
184.000000 -0.000712625031830797805478 0.000147290686962298468868 0.001150430492783455346459 0.002254969329307953632840 0.002145509550887028573513 0.000758336971751107178502
186.000000 -0.000720253619289600304117 0.000155994103674598756475 0.001174011803587923395351 0.002296120587974202331000 0.002179296556369315473328 0.000764982283389704811709
188.000000 -0.000728202180812643671236 0.000165203393736751804124 0.001198803252878239853849 0.002339332205645144532880 0.002214707419723672271461 0.000771861261208356690296
190.000000 -0.000736487708315809838817 0.000174954332653836150532 0.001224883491910214996720 0.002384735185947760901376 0.002251843641672223502587 0.000778987353472250141327
192.000000 -0.000745128350438707524363 0.000185284424155913757682 0.001252335487636972721770 0.002432468038247173787447 0.002290811464312301516666 0.000786372461657012123554
194.000000 -0.000754143371338988508998 0.000196234504375161718020 0.001281249056197546112162 0.002482680922899615800353 0.002331726480664973646245 0.000794031033385157866342
196.000000 -0.000763553237398644510728 0.000207848625523957778599 0.001311720516848779213154 0.002535534246883492260488 0.002374711255325453324039 0.000801975668398433190996
198.000000 -0.000773380358449857955964 0.000220173917683026188798 0.001343853088818301559637 0.002591200429377231353317 0.002419896983664191272845 0.000810220200029154865792
200.000000 -0.000783647525633804006850 0.000233263154032011178112 0.001377759795157763953594 0.002649866627475548370302 0.002467426011150777778042 0.000818779601401056723528
202.000000 -0.000794380421026482145229 0.000247170332749578332103 0.001413559097747251695060 0.002711730932890560243770 0.002517449113874827264919 0.000827669369671861217090
204.000000 -0.000805605367872147927824 0.000261956498182740920352 0.001451381603881076939877 0.002777009760761245654032 0.002570129711946216814061 0.000836905083877673996139
206.000000 -0.000817351962435917218583 0.000277685080159258742410 0.001491365418194995481546 0.002845933695059970659769 0.002625642567777360797399 0.000846503962242796804787
208.000000 -0.000829650749602632597325 0.000294425950822925453984 0.001533660375713861122315 0.002918751436411599377296 0.002684175732251721513411 0.000856484703434355165545
210.000000 -0.000842535644708688503945 0.000312253036612090766836 0.001578426582169768516845 0.002995729917951044096736 0.002745930656881843782979 0.000866866420117716539144
212.000000 -0.000856043246257781002134 0.000331245367864779088375 0.001625835754946282091932 0.003077155569563491677165 0.002811123738201960937932 0.000877669572794662479313
214.000000 -0.000870212065199500294649 0.000351488943196256401619 0.001676073336008580697346 0.003163336973035127831083 0.002879988411771287632607 0.000888918723849559111461
216.000000 -0.000885084715923751337747 0.000373073572456536354299 0.001729335326813032829366 0.003254601964893342070512 0.002952770860860362122507 0.000900635621640046512247
218.000000 -0.000900708103096429352728 0.000396094504351924962295 0.001785831794489420743660 0.003351302561548637030941 0.003029738599905262320944 0.000912849222506623126337
220.000000 -0.000917131817660712207393 0.000420653904132747130922 0.001845787366681966466461 0.003453815145172752128222 0.003111176238305419020080 0.000925589212816078010446
222.000000 -0.000934411949729885347830 0.000446856617354874610833 0.001909438323038952205896 0.003562538658924332708039 0.003197386410143927479299 0.000938887383987113710061
224.000000 -0.000952608355714125226363 0.000474814218477725058423 0.001977036484279722818036 0.003677898438086609714942 0.003288692389488570913536 0.000952780271385492280242
226.000000 -0.000971786968078778581014 0.000504641545931682031396 0.002048846290552321786071 0.003800343312455264216387 0.003385436999133332406503 0.000967309470926467165376
228.000000 -0.000992019248707140836527 0.000536457629786909204542 0.002125145188660079471205 0.003930346667814632946603 0.003487981921017876789370 0.000982519211343065501305
230.000000 -0.001013387035229055925523 0.000570379388219815109014 0.002206219869388304118119 0.004068403644336867665265 0.003596710304108080222263 0.000998462562560070016060
232.000000 -0.001035977353486882334907 0.000606528529203123546905 0.002292370642620096196640 0.004215034134011415127563 0.003712024828261774669902 0.001015197846297492172488
234.000000 -0.001059888612336882737774 0.000645022380040093773999 0.002383904592151389178339 0.004370777779562047028750 0.003834348725797428244361 0.001032792447262282590353
236.000000 -0.001085230544093983371529 0.000685975501823247037041 0.002481137659653343246341 0.004536196160708667879380 0.003964126807619391609783 0.001051322328984788129908
238.000000 -0.001112122812696846345035 0.000729501745299246493089 0.002584396769491372185951 0.004711876122797106075657 0.004101828254300710768776 0.001070872528257207564883
240.000000 -0.001140698584065849389979 0.000775713112746910038800 0.002694022295391542299453 0.004898435660060602991894 0.004247952839624897537762 0.001091539223064651913456
242.000000 -0.001171103416646782557561 0.000824726045546891688674 0.002810376730087706716871 0.005096536089536399596889 0.004403039732119793693566 0.001113428828217467771861
244.000000 -0.001203494072397956601503 0.000876670077258145160476 0.002933858006287876594997 0.005306901466742162433443 0.004567679582161342406732 0.001136653349781039041080
246.000000 -0.001238039231971182520253 0.000931699647920156029217 0.003064919207945608365523 0.005530347827321649249732 0.004742536155322414105628 0.001161330714061967021855
248.000000 -0.001274912006907752588802 0.000990019916995858338324 0.003204101900485830864418 0.005767827702218466211226 0.004928372112207759017655 0.001187576105326952537883
250.000000 -0.001314288327653323354763 0.001051909764391600540789 0.003352071527116437608257 0.006020480618705370719212 0.005126081348910255068574 0.001215495535480427173949
252.000000 -0.001356337674938389893653 0.001117757769321305917620 0.003509664164853363178126 0.006289695055710713481045 0.005336722273702633814740 0.001245172443309799795511
254.000000 -0.001401216661971902257069 0.001188094554907334057456 0.003677931343534715600413 0.006577170148462327739503 0.005561554147348591464750 0.001276658624483671764654
256.000000 -0.001449062445826742586905 0.001263621810705626473739 0.003858178009206812263815 0.006884967181375546176059 0.005802060290469977441030 0.001309959814921960721476
258.000000 -0.001499991093841148174712 0.001345224789743608082015 0.004051979123247178779521 0.007215533480354554413116 0.006059955781658751296226 0.001345028866388176327917
260.000000 -0.001554100582110707392397 0.001433962446365672068968 0.004261165470537692928632 0.007571685942839904114032 0.006337168721300402880747 0.001381764633926460322452
262.000000 -0.001611488955763293925288 0.001531013020977339562229 0.004487754224954402376691 0.007956525425070342522060 0.006635780814573885751095 0.001420021307991112691910
264.000000 -0.001672283187419470670831 0.001637575114744071504147 0.004733819457949251657825 0.008373271330666027384426 0.006957923219171224110680 0.001459640457465176746621
266.000000 -0.001736685860133026400309 0.001754710932671055441390 0.005001291330846840965663 0.008825006421058387631740 0.007305625372414486888573 0.001500501041645560052276
268.000000 -0.001805036220746095761841 0.001883144925107544396040 0.005291701035223867442825 0.009314351852893261451971 0.007680633336994220801419 0.001542592429586376202161
270.000000 -0.001877882636108963235189 0.002023035774472957404324 0.005605897849792523986168 0.009843108491872013324220 0.008084223437227396405480 0.001586110597736220930234
272.000000 -0.001956046079318679142139 0.002173772920968723189328 0.005943800306942743742755 0.010411937351008518706785 0.008517053570214637783775 0.001631561658956046535068
274.000000 -0.002040663842311368943172 0.002333847790302564714771 0.006304249408830335521525 0.011020168335096801326412 0.008979106073438878829474 0.001679857233680464613512
276.000000 -0.002133184687974804937677 0.002500871174138706055923 0.006685046470363009002424 0.011665833076781144395095 0.009469768865748356620471 0.001732378814286281328017
278.000000 -0.002235301139150460986854 0.002671768731597770358405 0.007083208299768040810962 0.012345957591771958977711 0.009988057195204343846617 0.001790981114212768232630
280.000000 -0.002348825738335565561227 0.002843139112167365843004 0.007495419207118441881632 0.013057094496440657671599 0.010532960264065987024407 0.001857922392998431456237
282.000000 -0.002475520901183813488045 0.003011744023194943154637 0.007918637486049026619206 0.013796048351261828643355 0.011103868161149660701015 0.001935701800658357714033
284.000000 -0.002616909661339470328373 0.003175071201716586806463 0.008350788337306836589535 0.014560728245792227061872 0.011701038160950196290178 0.002026808678798921320441
286.000000 -0.002774100782443202507094 0.003331912385487629472275 0.008791486198022599451996 0.015351080585117454074817 0.012326077343966639413009 0.002133399651528159780833
288.000000 -0.002947650976231010969825 0.003482917597448488989526 0.009242750302586118585357 0.016170076599680956175309 0.012982436116430916966946 0.002256939065278971805195
290.000000 -0.003137476921895498028353 0.003631093196334271924752 0.009709675821954463770247 0.017024704620371953339708 0.013675884977640637846230 0.002397830948965330027933
292.000000 -0.003342807176413744880278 0.003782196314245023054113 0.010200977422391425616932 0.017926826110167340400103 0.014414880046626952006528 0.002555093858108821013725
294.000000 -0.003562168924930194605777 0.003944813491943857317046 0.010729058783720300113140 0.018893356149455850512275 0.015210436466000867156145 0.002726149175065202111962
296.000000 -0.003793438721529147298478 0.004129500416016748318149 0.011308632466903804567049 0.019944310389304116537534 0.016074492295725384405358 0.002906890295092271446487
298.000000 -0.004034216148334880160109 0.004345444098780773881097 0.011951672569632750681157 0.021095609698169270201928 0.017014713171379671624583 0.003092410548247425186585
300.000000 -0.004283321482489540164840 0.004592226160158286406288 0.012655662259433349617344 0.022342827545985790432814 0.018023667340532595337876 0.003279055999581361596773
302.000000 -0.004544318224391981873855 0.004846807671513931985163 0.013386429140672711363136 0.023638724836969552539623 0.019065478744329747429198 0.003468002094921724971083
304.000000 -0.004829239082040060436485 0.005055557224519166732712 0.014069764178373628596419 0.024884157173080772434970 0.020073399647224043906846 0.003668728111217214264000
306.000000 -0.005157403186973897810108 0.005145418509544774990361 0.014609070532836889236283 0.025953084547112478114306 0.020969592232716591229114 0.003900149591238645605668
308.000000 -0.005548146519260548081842 0.005049933042455776247004 0.014920117437515643607493 0.026736828467489339583585 0.021694426203726684121431 0.004189110770929106372651
310.000000 -0.006013439082065990919090 0.004728187247548293510591 0.014953343647913366204483 0.027169126893598950084341 0.022220854397431471366486 0.004566545826981138062051
312.000000 -0.006554007284765849504493 0.004168095288399682740721 0.014694152239494858228075 0.027221936383933151293313 0.022548707818051998835740 0.005060605322831662582217
314.000000 -0.007157930497931164030845 0.003382430285894407178543 0.014154237475223768391586 0.026892274092378369576561 0.022691094570009593539561 0.005686906702932250853855
316.000000 -0.007802020926380581408721 0.002403449419266825027447 0.013363682720154475974672 0.026195467757611529124873 0.022663886804358764764933 0.006440806540609831515320
318.000000 -0.008457097553295111341809 0.001275030723419063715535 0.012363177567544864771110 0.025161918723833356231756 0.022480956955274092323727 0.007298025416794456238234
320.000000 -0.009095371262982090629357 0.000042089444956426653641 0.011194390961650169460939 0.023829859091064890114220 0.022152436264322235281998 0.008222185016442026470052
322.000000 -0.009695667949230119680992 -0.001256982090708735032292 0.009893456175840894054052 0.022238794728683886764431 0.021685130549743220074177 0.009172095189906656273471
324.000000 -0.010244926702204431440135 -0.002591053644181821446341 0.008491885143891602857891 0.020431267673234006221339 0.021086678251383942500619 0.010106888169380276801257
326.000000 -0.010737735261807389991473 -0.003934497833313799382282 0.007019575006007609460634 0.018456764259194867461300 0.020370089097576347253460 0.010990490846137524957871
328.000000 -0.011174062412885165523901 -0.005266035075299468556920 0.005505160021665564569482 0.016369862822631930238115 0.019553372194990117222124 0.011792699324549229741854
330.000000 -0.011555038949573073064903 -0.006566529448698958833230 0.003976063823075197574408 0.014225978277882977279800 0.018655478706709083258630 0.012484792978566345775238
332.000000 -0.011878753150020333537173 -0.007815247246323124216683 0.002460345941783985065920 0.012079297476986022852330 0.017693124852769751692572 0.013035112962804100075753
334.000000 -0.012137438287690994684342 -0.008986369345364642394203 0.000988816510207929074208 0.009981256551299090562512 0.016679446694643478704689 0.013411036356238918015871
336.000000 -0.012316219480972490779580 -0.010046009243655958098618 -0.000401963503644950587504 0.007981433529374967056347 0.015627292488169176182256 0.013588546227272440408695
338.000000 -0.012394392055369367680595 -0.010950471630469110762007 -0.001665404041296843435163 0.006133494974577664848869 0.014560304674417655010354 0.013567349928867331390614
340.000000 -0.012351808755326107794326 -0.011652871061670160707235 -0.002748502346514089013374 0.004495134626021001118812 0.013520922636093753513298 0.013381961776327104540751
342.000000 -0.012178503484612308860324 -0.012119585125785994894621 -0.003608643883018419588893 0.003112763263734489270484 0.012560001864474890434509 0.013093343544512119763779
344.000000 -0.011879216248816260731447 -0.012342775400931208645838 -0.004230171634281932116495 0.002003559184958730865489 0.011713390523491866782035 0.012762096008110250869305
346.000000 -0.011469017377832686765959 -0.012337576311637997797388 -0.004624937756423278152618 0.001153759956962179282144 0.010987908478710525436717 0.012424514918445659153456
348.000000 -0.010966266884143999887913 -0.012130853596236333344360 -0.004820704584783132816417 0.000531026880497542587596 0.010366088093580975298957 0.012088223495014011055204
350.000000 -0.010388560366056159151027 -0.011752562937973705034511 -0.004850160054681148559530 0.000096869992172072090985 0.009819333910563035963670 0.011743191753068206797939
352.000000 -0.009750478880041922938315 -0.011231362781916770857138 -0.004745402113350364811661 -0.000187236843700654663220 0.009317124097687742856344 0.011373474001238784852896
354.000000 -0.009060128997876133044587 -0.010590317325227697337064 -0.004534669916007391318735 -0.000356955912778564971814 0.008829461310687465591673 0.010961402181780533632294
356.000000 -0.008316185592746334898084 -0.009842297061956457177034 -0.004238421024768504116742 -0.000440928693186206505095 0.008328252684875206424131 0.010487355099430531804594
358.000000 -0.007512127887526984584832 -0.008991933645058673707506 -0.003868045797744412706010 -0.000456759169912660380024 0.007793135388457520136563 0.009933498511964870478219
360.000000 -0.006645571325020427529140 -0.008043379323735224198377 -0.003428938735812351885218 -0.000410827207930281068128 0.007217657194620254526574 0.009290549211581653615832
362.000000 -0.005723140756131264196560 -0.007005586257080934076136 -0.002925104997412086935832 -0.000302929460087303012699 0.006608084284292541077388 0.008559760602319560138240
364.000000 -0.004761964113170025041100 -0.005897390672886567396238 -0.002365909544796852403276 -0.000135201107638160993507 0.005976175883500202921927 0.007750748769181352304525
366.000000 -0.003793006692729677682002 -0.004755936163281689055271 -0.001774492741145584267029 0.000078363568433058769492 0.005332810934819734102752 0.006880191143343988499637
368.000000 -0.002861506167295042608184 -0.003638986781826609832879 -0.001190136195751328182860 0.000309075401165094163208 0.004686297591482248454942 0.005972123682693528633203
370.000000 -0.002019090820955423293964 -0.002613896114580769453051 -0.000660237991244364734802 0.000519984346681427733738 0.004043881554060855393340 0.005056723418343607098779
372.000000 -0.001311662726814586928462 -0.001740795002108850046338 -0.000227806172648486158789 0.000676212453289142261144 0.003413656839073335273749 0.004166790994524828019296
374.000000 -0.000767834619856227443453 -0.001058106749699243937998 0.000080006917664541231383 0.000754884275891558125492 0.002806627229955028883512 0.003333950113629589265957
376.000000 -0.000390709539118571063786 -0.000573396235630478016791 0.000259849489410806896213 0.000752478065381177252738 0.002238711860008081241946 0.002586217314796227743218
378.000000 -0.000158708606669859529940 -0.000264649363890587902785 0.000331420931447129680277 0.000684735069262941311967 0.001729389988468554633858 0.001945324436816450210108
380.000000 -0.000035566432202691677174 -0.000091388336742485512662 0.000327912502046215554620 0.000578544763976400651384 0.001295791918075021083995 0.001422546420621326407688
382.000000 0.000017589828901530073473 -0.000008146449317752413978 0.000284261021145436429836 0.000461551380575481108755 0.000946479751419310416476 0.001016271194291214208238
384.000000 0.000032837774541296779122 0.000024139599379628534501 0.000227900872944546953238 0.000354030300879322294694 0.000678969176233415309431 0.000713570628157825953032
386.000000 0.000030986803629044187879 0.000031701162024586767804 0.000174565896513241390490 0.000265569138519169175693 0.000482112829190992216947 0.000495260020170908642732
388.000000 0.000022745776337061666549 0.000028541793332362737628 0.000130069219104233391041 0.000197231939047421821892 0.000341169506635454508441 0.000341474240331547554232
390.000000 0.000012828578866809031318 0.000021139556564506011970 0.000094934240453348458307 0.000146067232270257222823 0.000242078017803348295592 0.000235068909952891309627
392.000000 0.000003309691578828770909 0.000012572989127341891078 0.000068002490477677329838 0.000108440129717514221553 0.000173458130240372094709 0.000162702265608296345149
394.000000 -0.000004770529983003125896 0.000004549904964543220923 0.000047942119348153622901 0.000081258192841065924185 0.000126660437656032573168 0.000114338806225655980849
396.000000 -0.000010915291233608280812 -0.000001960218619882199829 0.000033541274233328004424 0.000062068313441595733462 0.000095218083069923073751 0.000082532397555962503863
398.000000 -0.000015125689055350707724 -0.000006687918753985247235 0.000023572893831520280917 0.000048798238831779205645 0.000074310853046073271347 0.000061847595270920249343
400.000000 -0.000017708525646466028223 -0.000009791944578312756681 0.000016896637194645228370 0.000039761689550271260161 0.000060457534028468636522 0.000048457671991767143304
402.000000 -0.000019073063996899876604 -0.000011634476634111405054 0.000012518795855758171778 0.000033613450793053003759 0.000051198738257736180147 0.000039744015682101333149
404.000000 -0.000019588969890931456533 -0.000012576969509852948059 0.000009679584725270127282 0.000029371393067657260362 0.000044867653628024984735 0.000033969618677403815206
406.000000 -0.000019566781414212872222 -0.000012933412780008346561 0.000007834137920509736384 0.000026362248612383158252 0.000040398275469151079134 0.000030040036515464975305
408.000000 -0.000019220430102794815863 -0.000012931380823287032334 0.000006607912627942523248 0.000024129597590760403620 0.000037087847160605967394 0.000027245266369648253087
410.000000 -0.000018681329005829517415 -0.000012715002396920552051 0.000005766412707910864506 0.000022387151794177048497 0.000034510391747719306084 0.000025164986480474061173
412.000000 -0.000018062043313211345651 -0.000012404509087963139165 0.000005142472110225764927 0.000020944512796636091467 0.000032405842605718778707 0.000023544454863624451229
414.000000 -0.000017404959897253450803 -0.000012039208183230790648 0.000004658405963783714563 0.000019702018504613238932 0.000030603489312521305922 0.000022207137730706508297
416.000000 -0.000016731436424747394350 -0.000011645159074503208188 0.000004265085527481283013 0.000018598273257162012162 0.000029003863221336994313 0.000021046236056553012259
418.000000 -0.000016065053970858638393 -0.000011248517258153101724 0.000003925453587728208866 0.000017588727758160824395 0.000027544916190121195146 0.000020010799607122247887
420.000000 -0.000015410353570110662109 -0.000010855946138997110220 0.000003623172018996207968 0.000016652366257096004305 0.000026196834188086362191 0.000019055394999790667865
422.000000 -0.000014768708428077725672 -0.000010460786739024648803 0.000003360490649537366717 0.000015788590657713364590 0.000024947447124224916522 0.000018177216126162050588
424.000000 -0.000014135895277514149172 -0.000010061187778946130552 0.000003128938325876261325 0.000014981097974185130143 0.000023765704140299917778 0.000017345768133085557455
426.000000 -0.000013522988639508433148 -0.000009662058311914594272 0.000002930065466897602927 0.000014236090383466408005 0.000022661694092139959882 0.000016566043814424690660
428.000000 -0.000012928971862623572954 -0.000009267705774004913842 0.000002755489139190109146 0.000013542701462460295027 0.000021617687414495063666 0.000015822683667128875510
430.000000 -0.000012360083490911606159 -0.000008889411814605529288 0.000002588209396878506408 0.000012876776017205217274 0.000020625612433001085084 0.000015130498915973305868
432.000000 -0.000011802575459838119938 -0.000008510956962781480079 0.000002443249107818144578 0.000012254451611647878626 0.000019680139897872374517 0.000014459631972873943133
434.000000 -0.000011278342806339466806 -0.000008156964167168170908 0.000002299418315212259688 0.000011658840159428158811 0.000018779614958633523042 0.000013825579714267118749
436.000000 -0.000010771839566473262394 -0.000007810574258594411962 0.000002167166003393233566 0.000011090826869308599226 0.000017915716695464891013 0.000013217901556333703280
438.000000 -0.000010280542992018224094 -0.000007466862970507909504 0.000002051570270625791667 0.000010557602107167349630 0.000017093721881466557170 0.000012635491294790052568
440.000000 -0.000009803811313897898874 -0.000007130337441097504421 0.000001945821576048861084 0.000010050182511615386076 0.000016301924533040852071 0.000012071960857009753150
442.000000 -0.000009340565743217745824 -0.000006801757448003804502 0.000001846679504114608233 0.000009564144532777424428 0.000015540469439341552809 0.000011523924604090298582
444.000000 -0.000008890057743815572811 -0.000006480338182001394469 0.000001755271665687032842 0.000009100238032321395244 0.000014813942302157687977 0.000011011098942103935276
446.000000 -0.000008464725987179676827 -0.000006182957890914760280 0.000001655777483865695250 0.000008643064400076307422 0.000014100474092855797589 0.000010502155113850478806
448.000000 -0.000008041380809075524789 -0.000005868265527866375994 0.000001589527017429111813 0.000008238162782653252189 0.000013431849130747349882 0.000010013287721124256502
450.000000 -0.000007632481836643183404 -0.000005561470925876250836 0.000001531011433712330045 0.000007854187456429152986 0.000012786910723787575005 0.000009527697891597610897
452.000000 -0.000007233975468408381749 -0.000005258570550287699016 0.000001479085917108476337 0.000007486707874106861902 0.000012163192127028587991 0.000009057988710681739815
454.000000 -0.000006858531478681775661 -0.000004973001375164054274 0.000001429453871197821678 0.000007136899445260365872 0.000011569013251327285488 0.000008609348852439990907
456.000000 -0.000006509333699098557405 -0.000004709582914813091747 0.000001376385366057608964 0.000006801522330382625450 0.000011006373410122681801 0.000008182938444582863857
458.000000 -0.000006196065700627190145 -0.000004489223353366953784 0.000001299828505354183640 0.000006461279833830545750 0.000010465868667614550337 0.000007786440480955241395
460.000000 -0.000005894218506257435589 -0.000004273766594027366158 0.000001231564298830142341 0.000006139310666798127139 0.000009949634293293245545 0.000007397509459621911509
462.000000 -0.000005618345352997442534 -0.000004081798321754994962 0.000001153863730109519046 0.000005823600097297028471 0.000009457524027006001754 0.000007039969406433706833
464.000000 -0.000005346673807234107570 -0.000003882889234925897046 0.000001096030115510884158 0.000005536033561398688352 0.000008985739673075637102 0.000006687949020394624499
466.000000 -0.000005094836288923221272 -0.000003705380186207030142 0.000001034980130811291084 0.000005262788175089174592 0.000008549941752578463282 0.000006354184742252836795
468.000000 -0.000004861695427823816627 -0.000003550561730584195474 0.000000961364642132815909 0.000004987139433025859356 0.000008128369547908359546 0.000006048027973625239156
470.000000 -0.000004627445811180953554 -0.000003380119357577210031 0.000000912495265328462782 0.000004740986439639062268 0.000007730182287682419641 0.000005762261373673756516
472.000000 -0.000004402041777962861087 -0.000003214166096271525637 0.000000869612330506947787 0.000004509392535072974534 0.000007349723973977241973 0.000005481957165258484526
474.000000 -0.000004191020903990417305 -0.000003059148861886026709 0.000000829270970072681447 0.000004294812101635562390 0.000007002405275453361514 0.000005222080003617117643
476.000000 -0.000003990136554256549724 -0.000002908449522486799404 0.000000794883067665809073 0.000004097367141589413025 0.000006670797349995934732 0.000004965253894349984232
478.000000 -0.000003792233232518740489 -0.000002757951799976011353 0.000000769363355660481719 0.000003912604365964328463 0.000006365071879820434001 0.000004728904485918281776
480.000000 -0.000003605938403124993832 -0.000002623869987794803687 0.000000731582497800800879 0.000003721302339602337376 0.000006058737254798774879 0.000004510738495905529311
482.000000 -0.000003432423968081116608 -0.000002498687283848585169 0.000000692583432058833195 0.000003538189652502644182 0.000005753273794276394532 0.000004282603759392944577
484.000000 -0.000003271298720961265014 -0.000002384685601150341550 0.000000654058409602991764 0.000003364544583255153196 0.000005479822416814024529 0.000004079258740139878064
486.000000 -0.000003100154164129375542 -0.000002247489678925640265 0.000000641125461801182759 0.000003218010403796290255 0.000005217308238502660299 0.000003878566702836566302
488.000000 -0.000002927645776848656462 -0.000002112375730237431106 0.000000627970317212639644 0.000003072663194954166871 0.000004958392986769553577 0.000003674105848553199907
490.000000 -0.000002786814141422882567 -0.000002004448812428719225 0.000000605676872477871680 0.000002935550331800160931 0.000004722976376808815026 0.000003493887833455283102
492.000000 -0.000002655762133349502537 -0.000001914179771049631282 0.000000569602382631390724 0.000002787706934085907314 0.000004489988111084324635 0.000003313770828202340917
494.000000 -0.000002518098515445288068 -0.000001800549647738189587 0.000000563380216936843317 0.000002675587435899744342 0.000004279930762624067493 0.000003143615186352922302
496.000000 -0.000002401849620181343853 -0.000001726507433582991256 0.000000520417928137693939 0.000002529245582249816520 0.000004059767475911462021 0.000002983642012255954769
498.000000 -0.000002295817860231856310 -0.000001653161099083097033 0.000000489241354717004172 0.000002406390739120773687 0.000003865756863631088055 0.000002841165541736526747
500.000000 -0.000002171707720425302387 -0.000001558861520877276238 0.000000475560918166169653 0.000002295118252448009688 0.000003679267449624885482 0.000002702877026725220165
502.000000 -0.000002062319322953626256 -0.000001476231957111881336 0.000000458825813542677908 0.000002191715976465590773 0.000003501542960324258443 0.000002568553622150008229
504.000000 -0.000001972359523974096126 -0.000001421955808345166663 0.000000421008648140518585 0.000002070233455953895063 0.000003329649735730149553 0.000002458211123688212401
506.000000 -0.000001878582742158674654 -0.000001352602350221585119 0.000000405556515945921183 0.000001978286801095796942 0.000003176129325095282669 0.000002335319820441306083
508.000000 -0.000001791619900606623721 -0.000001287602619885689030 0.000000390470020674389787 0.000001892769778262055652 0.000003038873361553311213 0.000002232450085311183282
510.000000 -0.000001717820951702262915 -0.000001241425311641234332 0.000000358669648034826092 0.000001795650663074348408 0.000002886636198874833672 0.000002121502866120188422
510.580000 -0.000001692830767830700909 -0.000001223198093513175929 0.000000354038816959663347 0.000001771314988786683371 0.000002847674256768003147 0.000002095420439069928509
