0.000000 -0.000000000000000000000000 -0.000000000000000000000000 -0.000000000000000000000000 -0.000000000000000000000000 -0.000000000000000000000000 -0.000000000000000000000000
2.000000 -0.000966405825481038600888 -0.001953695680960018492278 -0.002810279305107318912477 -0.003343487182674498379292 -0.002628811771115481359107 -0.000096648011858351933617
4.000000 -0.001243846345026323107694 -0.002726057466505375607990 -0.004242989977855297564768 -0.005399264270651909711218 -0.003719473685105193546535 0.000184348308134295725373
6.000000 -0.001067375861261769332336 -0.002804307701519395765871 -0.004764332724046109988902 -0.006438827237319887965283 -0.004234270139840051044855 0.000321042267040205601958
8.000000 -0.000803349418214956124094 -0.002798879227150506947969 -0.005206998690048486241877 -0.007415018172812953833883 -0.004847977917926795179970 0.000508003874287963675706
10.000000 -0.000750932177559558581073 -0.003230833642516755307289 -0.006285510032525296920947 -0.009165247407222168810059 -0.005920941678682743562756 0.000826951365192385803339
12.000000 -0.000820979209208880255678 -0.004187559146235917892365 -0.008375301292868966851479 -0.012361404297207397029457 -0.008168251252697588185581 0.001168084069528956166206
14.000000 -0.001010857337612766073884 -0.005704619310826407330151 -0.011579008258107571782691 -0.017112394483614467438626 -0.011368836214660844874391 0.001719627172063614272551
16.000000 -0.001847482364532632929249 -0.008797401002766876837446 -0.017316214249287451704129 -0.024948142492177891732519 -0.016313489615716561531578 0.002481672381659563633022
18.000000 -0.003428382744718464630873 -0.013040885217583236474481 -0.024444613374463727839547 -0.034046837405422754330164 -0.021268770199066096282525 0.003654306976489015909570
20.000000 -0.005359662349308434887984 -0.017895948783531887005260 -0.032364455939454091215612 -0.043891629870234337429391 -0.026431071895982947983494 0.004925054728696249065067
22.000000 -0.007319164117595826704599 -0.022607235120107822823332 -0.039833244333614875598570 -0.053033550500628967583339 -0.031114399948031883080812 0.005955946345793789592493
24.000000 -0.008894528145791199061354 -0.026419359418988024729158 -0.045690801101371018855257 -0.060045021188674656265061 -0.034253784521535525497971 0.006825998485725029429894
26.000000 -0.008039776145384064376387 -0.025642042949909002458320 -0.045354895475087669831638 -0.060770262084818463255154 -0.034589178366372250184035 0.006738290327727501465016
28.000000 -0.007884495227357126226342 -0.026068099769863455061891 -0.046536187238205434235638 -0.062937234678619183303461 -0.035337970230503418234136 0.007027038646421894518834
30.000000 -0.006573046730614615605626 -0.025152791372106377693063 -0.047081748793518306273054 -0.065306511994632873707722 -0.036749007997124633062569 0.006700745379404306721616
32.000000 -0.003848147810269319634563 -0.021661173578831880576212 -0.044380502757277034975303 -0.064305924551842877368024 -0.036928386091266043878001 0.005580617621606913901500
34.000000 -0.001222590594919918194697 -0.018162599569765621593254 -0.041396263366741452294217 -0.062659074127921959851406 -0.036702867334374111862871 0.004663139491309438618150
36.000000 0.001119036112681804544591 -0.015359094953884856737947 -0.039110658004829365608224 -0.061361336080443459883860 -0.036994319532783905002393 0.003438846688255399464129
38.000000 0.003219834985790383762028 -0.012826840801485094381573 -0.036887056761540658322840 -0.059753518359189038144930 -0.037599882126552172656453 0.001901170989166435162931
40.000000 0.005030069956196964349460 -0.010866939446917940961801 -0.035303755007315480718422 -0.058650368840959185567918 -0.038675059426907555659714 0.000191223416667429368509
42.000000 0.007107312256346721805744 -0.008529408840324230814400 -0.033210428018981955067268 -0.056891522185771689623657 -0.040010202302889201486646 -0.002045381524915572575563
44.000000 0.008962167733973180894225 -0.006433791470253420741177 -0.031194984178086949955233 -0.054977661009406868231064 -0.041728260014332212157750 -0.004238050988186694949256
46.000000 0.011022786202173102607094 -0.003468526445906637990096 -0.027568310833825139527509 -0.050641689771460510205436 -0.041015224180997074399091 -0.005461084357603952256499
48.000000 0.013341100702303518993341 0.000016064894934396074051 -0.022900056636573112162081 -0.044762587811322814002057 -0.039600087928231067491147 -0.006765958075836272893333
50.000000 0.016072724390889199519439 0.004165054401839052115875 -0.017379965271549883965019 -0.038077023608087443018455 -0.038001628195801911980212 -0.008440213239731864797166
52.000000 0.018521716281050624314242 0.007727072448630954194793 -0.012637752256177884821464 -0.032304977215024566206125 -0.037096834761176464279053 -0.010253795427880326232573
54.000000 0.020401092795487320991077 0.011008895024931511161248 -0.007604558928874377565776 -0.025543210486296673289441 -0.034684584617362582137368 -0.011871568563809303809009
56.000000 0.022596580130137634834231 0.014572664112788021040235 -0.002561102234385818476187 -0.019306196255858061594513 -0.032278281618174697875645 -0.012969304070829952221788
58.000000 0.025069958265726544760499 0.018293671259788316790784 0.002392309742019961115583 -0.013437155351175587847390 -0.029753334053100023715022 -0.013828165804090514559577
60.000000 0.027023562688127212433331 0.021880664542185394860763 0.007408076602741104840777 -0.007540399781371653724349 -0.026469617674262067158475 -0.013420898702300980073754
62.000000 0.027736323238805343782687 0.024495361057752511324548 0.011752252578471006697058 -0.002082161272769640549679 -0.022494875306419019611592 -0.011847991284389652877351
64.000000 0.027890932442993607298654 0.026021042146922388621499 0.014526248613731630038304 0.001448860434084026267698 -0.019553305451503775330702 -0.010115738358631934032394
66.000000 0.027259377797167250179200 0.025805891600595529111750 0.014926954706852478549362 0.002414825564556043625136 -0.019150824742477839945920 -0.008839105407946096920613
68.000000 0.027221715661476353353976 0.026249046327408227102795 0.015956430750826602893433 0.003902320317292097464484 -0.018710336975361077649360 -0.008337305173333352595333
70.000000 0.026657050853102159937436 0.025937548550524287122032 0.016180312583354106853450 0.004631085185581037579061 -0.018755185649869894615183 -0.008257156165363016553371
72.000000 0.024917156525747056333708 0.024225264389622674227054 0.014993427352228395899036 0.004076189302258316493610 -0.018920605668880416394551 -0.007615740000655821934084
74.000000 0.023873076811283901188521 0.023097947770997707267471 0.014250262804096969215806 0.003867118892957741287802 -0.018939358805690521131426 -0.007296453026288812759859
76.000000 0.023340855255943527418738 0.022258592658971391997635 0.013647410102952171537249 0.003698638618103157384848 -0.019246551290491877711508 -0.007324041792650837212619
78.000000 0.022177767462751137028665 0.020668031168108957212892 0.012374895232749108520132 0.003020734336187731045031 -0.019728279067230208854156 -0.007668892800503728478245
80.000000 0.020403811882799997162730 0.018756823492346943321740 0.011341941221514634241530 0.002950187840915985664630 -0.019102803969420233121124 -0.008019782213174045729098
82.000000 0.018433390319283579628085 0.017013548713918861393646 0.010766260269447141401100 0.003485649767439817810211 -0.017350875665507869277659 -0.007651980232764212484786
84.000000 0.016152891344826978553550 0.014990301175260550142765 0.009807989466791429758463 0.003582027574527882080729 -0.015631241486872591434087 -0.006978103887759130354029
86.000000 0.013249069572987104415063 0.012257327133095220761394 0.008077356878577916093898 0.002919474279247490609845 -0.014144888589707131643092 -0.006061611481526199725345
88.000000 0.009688749515506175913337 0.008756008668697055213892 0.005601616693587006638733 0.001659060177620515913466 -0.012565010048989109364692 -0.004910072210474039806904
90.000000 0.005502826458348148222499 0.004538669705319149823286 0.002379367761039522920913 -0.000316440182839812381502 -0.011250276941586747833646 -0.003460243646913083864769
92.000000 0.002727887138549935433507 0.001859823524032844493242 0.000405893109243446047370 -0.001412242147771884106730 -0.009687434963533414489234 -0.002066945291052412793376
94.000000 0.000363205707487314084086 -0.000330440410258558015660 -0.001179681187676223218935 -0.002248083295509780386856 -0.008015423950182794243791 -0.000460864302542595750435
96.000000 -0.001249140814857069769692 -0.001767934479832569596297 -0.002135364068210962758265 -0.002619152205842943843817 -0.006450108838376582102991 0.000326943751999963767938
98.000000 -0.001840672752870942899955 -0.002171140197966048724504 -0.002189769240184762100210 -0.002260852043464322246036 -0.004714496610026917312875 0.000588934643181689707406
100.000000 -0.001673278100171942403898 -0.001788597497564033654560 -0.001576118953934892933516 -0.001380233142287361604653 -0.002875750964008639241898 0.000532857759251480016770
102.000000 -0.001451957446159859955667 -0.001376624540949337310858 -0.000996131365539822078922 -0.000600708639900372634926 -0.001259373127080877334538 0.000653555480889188387256
104.000000 -0.001106308749901413609681 -0.000910529664933340684117 -0.000435086651552608959063 0.000059734327349753079187 -0.000320470235917963170314 0.000512682010497199228474
106.000000 -0.000665351461419827049787 -0.000362185698295797490164 0.000176988111871844409646 0.000701240101751935763011 0.000277644819921744878937 0.000381403699087967576042
108.000000 -0.000298719429551803331187 0.000082559367788186767195 0.000655364721921439263332 0.001180921127013124117405 0.000695274293714324737210 0.000280627723302111328936
110.000000 -0.000131325694757896538475 0.000281500625881522293942 0.000891690440586459455614 0.001443092897967954320315 0.000893703295159748237197 0.000036974230252864370900
112.000000 -0.000173924446989645652226 0.000251293113937042344574 0.000896630019702200522884 0.001484663436094340108196 0.000980416684760801026427 0.000003519045799827492648
114.000000 -0.000259742768518521479834 0.000173852673484801051621 0.000851486450906281428126 0.001476157841252745709856 0.001047656957295317560128 0.000041618492684952074212
116.000000 -0.000329726343425627962860 0.000112825327204372298485 0.000819693887805727724495 0.001477238094382439005658 0.001117252452471887216867 0.000071697000480929018820
118.000000 -0.000386636651005213321988 0.000065017161899981164644 0.000798065955756108408141 0.001484801546934350459719 0.001185600868951430320389 0.000096077294008101063157
120.000000 -0.000432312878683089631127 0.000028325568941519937830 0.000784637792031550292474 0.001497062005042972291854 0.001250523085107774472896 0.000115596747597603474972
122.000000 -0.000468585601674434708199 0.000000745126829567460182 0.000777647716733977198596 0.001512560345555974926357 0.001310706912421277011566 0.000130988640717832237814
124.000000 -0.000497218958262290490480 -0.000019594848961491034356 0.000775526363713049168153 0.001530100533256396671752 0.001365499335519281681739 0.000142982952109551323056
126.000000 -0.000519792883164363513082 -0.000034321436502861856247 0.000776970852686078303564 0.001548777305190696378795 0.001414753825932614332561 0.000152258547829311758747
128.000000 -0.000537648977906093070503 -0.000044777236601652165146 0.000780960376205075803083 0.001567958830799071404116 0.001458678546617573831834 0.000159406715005757656329
130.000000 -0.000551886962152558276790 -0.000052030822455768916811 0.000786731208778982966240 0.001587244685126377530607 0.001497708955018705115347 0.000164917383976645286203
132.000000 -0.000563383689258735464479 -0.000056907850434542953002 0.000793735325387642559787 0.001606413521247879172549 0.001532405395140474082052 0.000169184667469275391936
134.000000 -0.000572823190602185700927 -0.000060029900262745113342 0.000801597325653288219835 0.001625375792719594260707 0.001563376794364872927195 0.000172517257804274661221
136.000000 -0.000580737322698255493611 -0.000061863965923528350618 0.000810064733531860783206 0.001644126128646850428308 0.001591228024758074366743 0.000175152992393630386287
138.000000 -0.000587532434026643603231 -0.000062751448673881911355 0.000818980307679112299636 0.001662716530722329428757 0.001616530762264796776059 0.000177272984551416027408
140.000000 -0.000593516130212802550149 -0.000062937927258920685521 0.000828255094618664212611 0.001681233905961256394623 0.001639805392560652209238 0.000179014564171413434381
142.000000 -0.000598926279833402385941 -0.000062606243933510912891 0.000837838588454728884318 0.001699776052591260404323 0.001661511790629944607459 0.000180480704054569236110
144.000000 -0.000603938251000393148786 -0.000061880430643730416785 0.000847717752657202189975 0.001718452084858497269301 0.001682050594269537914169 0.000181747388959061227957
146.000000 -0.000608687945048193355772 -0.000060851207904729386121 0.000857896006719250834270 0.001737368484238373559855 0.001701765665829776128307 0.000182872292853154019528
148.000000 -0.000613276127143679104098 -0.000059579601504499081932 0.000868391114015983219508 0.001756628184939419560009 0.001720949191868606986330 0.000183897401370139006735
150.000000 -0.000617781827885800793355 -0.000058109083742248286068 0.000879227211715898722064 0.001776327732095582794675 0.001739848802276680638304 0.000184854030336942839856
152.000000 -0.000622263957775738563161 -0.000056466244109528744761 0.000890435337136114240901 0.001796558801359936057007 0.001758673508163817542777 0.000185765813151592969850
154.000000 -0.000626769217339385423422 -0.000054669766173589668366 0.000902047198567238503290 0.001817405795725678509592 0.001777600041651774317314 0.000186650324172208076194
156.000000 -0.000631333469851796556457 -0.000052729584942749229185 0.000914097157275696480840 0.001838948719574024252485 0.001796776397383208949757 0.000187519329596600044761
158.000000 -0.000635987084996881462187 -0.000050651978364518611593 0.000926619446995318417348 0.001861262963264351125506 0.001816332619178042534491 0.000188383083748363308173
160.000000 -0.000640753964166228826352 -0.000048437958453826529016 0.000939650062555175331382 0.001884421416177614562112 0.001836380071740182241130 0.000189249077077650851818
162.000000 -0.000645654531837730927442 -0.000046086161105480693732 0.000953225286997586756035 0.001908494786562958157872 0.001857017389949468851723 0.000190122636324272957032
164.000000 -0.000650706313572302808175 -0.000043592631578129610440 0.000967382945637191085653 0.001933553858196154946747 0.001878333423257716244467 0.000191008070670277408081
166.000000 -0.000655924933986504893335 -0.000040951988383843846559 0.000982161316669505780191 0.001959668802985539085709 0.001900409529756884449356 0.000191908095481500493018
168.000000 -0.000661323991534191351661 -0.000038156048175960649072 0.000997601498493164585285 0.001986911824692232098055 0.001923323222528291369729 0.000192825898622963866824
170.000000 -0.000666918858504526000652 -0.000035198931074507739585 0.001013743049584834394691 0.002015354764957744300446 0.001947146566183767047234 0.000193763352591656482079
172.000000 -0.000672720644081407481013 -0.000032068620512929293161 0.001030631856278016109107 0.002045074976283080877421 0.001971951448165824329062 0.000194721049135024954976
174.000000 -0.000678743031552539542034 -0.000028755496428377770314 0.001048313201471553568825 0.002076151296699643624549 0.001997810043352617106333 0.000195701698804243395509
176.000000 -0.000684998912077701589685 -0.000025247679789738251008 0.001066835951625919693894 0.002108667006156388166321 0.002024794077064832279605 0.000196705364982788547760
178.000000 -0.000691501223548036058307 -0.000021532516049802231863 0.001086251562956191962783 0.002142709730812464383881 0.002052976936333356094977 0.000197732008115916166107
180.000000 -0.000698264011030706494183 -0.000017596016588580764959 0.001106615723255764769523 0.002178373744141017843978 0.002082436889312548090880 0.000198783874947683570017
182.000000 -0.000705300679042928941459 -0.000013422572338400114075 0.001127987366751560111000 0.002215758036319010262916 0.002113252791843003419031 0.000199860128339684014380
184.000000 -0.000712625031830797805478 -0.000008994551833172248712 0.001150430492783455346459 0.002254969329307953632840 0.002145509550887028573513 0.000200961166275473007139
186.000000 -0.000720253619289600304117 -0.000004295269887014529065 0.001174011803587923395351 0.002296120587974202331000 0.002179296556369315473328 0.000202087682382818563777
188.000000 -0.000728202180812643671236 0.000000694778132067329357 0.001198803252878239853849 0.002339332205645144532880 0.002214707419723672271461 0.000203238362400358726521
190.000000 -0.000736487708315809838817 0.000005997300661727993390 0.001224883491910214996720 0.002384735185947760901376 0.002251843641672223502587 0.000204414339357376141941
192.000000 -0.000745128350438707524363 0.000011634762803183781410 0.001252335487636972721770 0.002432468038247173787447 0.002290811464312301516666 0.000205614240478341301233
194.000000 -0.000754143371338988508998 0.000017631773124463741883 0.001281249056197546112162 0.002482680922899615800353 0.002331726480664973646245 0.000206838771148910556888
196.000000 -0.000763553237398644510728 0.000024014869312593597187 0.001311720516848779213154 0.002535534246883492260488 0.002374711255325453324039 0.000208086329125542696464
198.000000 -0.000773380358449857955964 0.000030812196965312524930 0.001343853088818301559637 0.002591200429377231353317 0.002419896983664191272845 0.000209356159309963691653
200.000000 -0.000783647525633804006850 0.000038055893929443544189 0.001377759795157763953594 0.002649866627475548370302 0.002467426011150777778042 0.000210647798076480150366
202.000000 -0.000794380421026482145229 0.000045778161500046904864 0.001413559097747251695060 0.002711730932890560243770 0.002517449113874827264919 0.000211960128878801236678
204.000000 -0.000805605367872147927824 0.000054016008482944014924 0.001451381603881076939877 0.002777009760761245654032 0.002570129711946216814061 0.000213291511064837206822
206.000000 -0.000817351962435917218583 0.000062807224696206448650 0.001491365418194995481546 0.002845933695059970659769 0.002625642567777360797399 0.000214640429918612040804
208.000000 -0.000829650749602632597325 0.000072194051241659048536 0.001533660375713861122315 0.002918751436411599377296 0.002684175732251721513411 0.000216005658308727913151
210.000000 -0.000842535644708688503945 0.000082220539552506564083 0.001578426582169768516845 0.002995729917951044096736 0.002745930656881843782979 0.000217385405428113017562
212.000000 -0.000856043246257781002134 0.000092933793122767195606 0.001625835754946282091932 0.003077155569563491677165 0.002811123738201960937932 0.000218777108469182091479
214.000000 -0.000870212065199500294649 0.000104385386742629983803 0.001676073336008580697346 0.003163336973035127831083 0.002879988411771287632607 0.000220179532451180023315
216.000000 -0.000885084715923751337747 0.000116628286882070625482 0.001729335326813032829366 0.003254601964893342070512 0.002952770860860362122507 0.000221589037636445022102
218.000000 -0.000900708103096429352728 0.000129718660013688607277 0.001785831794489420743660 0.003351302561548637030941 0.003029738599905262320944 0.000223005194400941657382
220.000000 -0.000917131817660712207393 0.000143716640067776616884 0.001845787366681966466461 0.003453815145172752128222 0.003111176238305419020080 0.000224425585342240355982
222.000000 -0.000934411949729885347830 0.000158682611445360132992 0.001909438323038952205896 0.003562538658924332708039 0.003197386410143927479299 0.000225848421397938634893
224.000000 -0.000952608355714125226363 0.000174680846337069086045 0.001977036484279722818036 0.003677898438086609714942 0.003288692389488570913536 0.000227272412630477544998
226.000000 -0.000971786968078778581014 0.000191776674880004963705 0.002048846290552321786071 0.003800343312455264216387 0.003385436999133332406503 0.000228697248091607867890
228.000000 -0.000992019248707140836527 0.000210036629663076595230 0.002125145188660079471205 0.003930346667814632946603 0.003487981921017876789370 0.000230122601301902506010
230.000000 -0.001013387035229055925523 0.000229523785354386698071 0.002206219869388304118119 0.004068403644336867665265 0.003596710304108080222263 0.000231551147068535876760
232.000000 -0.001035977353486882334907 0.000250303120062708641270 0.002292370642620096196640 0.004215034134011415127563 0.003712024828261774669902 0.000232985772476592301484
234.000000 -0.001059888612336882737774 0.000272433977597654559868 0.002383904592151389178339 0.004370777779562047028750 0.003834348725797428244361 0.000234432788867756702672
236.000000 -0.001085230544093983371529 0.000295971442692695885408 0.002481137659653343246341 0.004536196160708667879380 0.003964126807619391609783 0.000235900487987154334904
238.000000 -0.001112122812696846345035 0.000320967775798145632787 0.002584396769491372185951 0.004711876122797106075657 0.004101828254300710768776 0.000237399988696388385915
240.000000 -0.001140698584065849389979 0.000347471109551172679334 0.002694022295391542299453 0.004898435660060602991894 0.004247952839624897537762 0.000238944482169663917825
242.000000 -0.001171103416646782557561 0.000375530177111328266216 0.002810376730087706716871 0.005096536089536399596889 0.004403039732119793693566 0.000240550404096048227971
244.000000 -0.001203494072397956601503 0.000405200655520208193223 0.002933858006287876594997 0.005306901466742162433443 0.004567679582161342406732 0.000242232374327634259002
246.000000 -0.001238039231971182520253 0.000436553548568800037482 0.003064919207945608365523 0.005530347827321649249732 0.004742536155322414105628 0.000244003969364371393978
248.000000 -0.001274912006907752588802 0.000469694661197403245077 0.003204101900485830864418 0.005767827702218466211226 0.004928372112207759017655 0.000245870146780367295446
250.000000 -0.001314288327653323354763 0.000504781427517137838180 0.003352071527116437608257 0.006020480618705370719212 0.005126081348910255068574 0.000247823477779580590100
252.000000 -0.001356337674938389893653 0.000542049715007964904440 0.003509664164853363178126 0.006289695055710713481045 0.005336722273702633814740 0.000249835153094223830911
254.000000 -0.001401216661971902257069 0.000581837731511460542685 0.003677931343534715600413 0.006577170148462327739503 0.005561554147348591464750 0.000251848100690164043193
256.000000 -0.001449062445826742586905 0.000624606799518784283620 0.003858178009206812263815 0.006884967181375546176059 0.005802060290469977441030 0.000253769351118592523166
258.000000 -0.001499991093841148174712 0.000670949285907452880502 0.004051979123247178779521 0.007215533480354554413116 0.006059955781658751296226 0.000255466094569913948834
260.000000 -0.001554100582110707392397 0.000721579196712594968244 0.004261165470537692928632 0.007571685942839904114032 0.006337168721300402880747 0.000256766950375603641380
262.000000 -0.001611488955763293925288 0.000777287554241336406044 0.004487754224954402376691 0.007956525425070342522060 0.006635780814573885751095 0.000257471318598978798214
264.000000 -0.001672283187419470670831 0.000838863833868742198550 0.004733819457949251657825 0.008373271330666027384426 0.006957923219171224110680 0.000257372253163029075535
266.000000 -0.001736685860133026400309 0.000906973021823118227998 0.005001291330846840965663 0.008825006421058387631740 0.007305625372414486888573 0.000256291497442313540023
268.000000 -0.001805036220746095761841 0.000981999218705367511034 0.005291701035223867442825 0.009314351852893261451971 0.007680633336994220801419 0.000254125359859393054433
270.000000 -0.001877882636108963235189 0.001063869592077458948315 0.005605897849792523986168 0.009843108491872013324220 0.008084223437227396405480 0.000250902090682109395366
272.000000 -0.001956046079318679142139 0.001151900919685353453376 0.005943800306942743742755 0.010411937351008518706785 0.008517053570214637783775 0.000246835703510930382695
274.000000 -0.002040663842311368943172 0.001244706951081725031932 0.006304249408830335521525 0.011020168335096801326412 0.008979106073438878829474 0.000242365855678828358592
276.000000 -0.002133184687974804937677 0.001340224188505484545150 0.006685046470363009002424 0.011665833076781144395095 0.009469768865748356620471 0.000238168927649980188051
278.000000 -0.002235301139150460986854 0.001435881098432457893960 0.007083208299768040810962 0.012345957591771958977711 0.009988057195204343846617 0.000235125053056290165112
280.000000 -0.002348825738335565561227 0.001528896903526780160984 0.007495419207118441881632 0.013057094496440657671599 0.010532960264065987024407 0.000234247990119732901445
282.000000 -0.002475520901183813488045 0.001616682854713935840046 0.007918637486049026619206 0.013796048351261828643355 0.011103868161149660701015 0.000236572553956374855271
284.000000 -0.002616909661339470328373 0.001697292326590833138125 0.008350788337306836589535 0.014560728245792227061872 0.011701038160950196290178 0.000243009353104678069157
286.000000 -0.002774100782443202507094 0.001769866655522446584684 0.008791486198022599451996 0.015351080585117454074817 0.012326077343966639413009 0.000254179385537606607540
288.000000 -0.002947650976231010969825 0.001835039371999083127746 0.009242750302586118585357 0.016170076599680956175309 0.012982436116430916966946 0.000270239685563888453607
290.000000 -0.003137476921895498028353 0.001895272500784157560655 0.009709675821954463770247 0.017024704620371953339708 0.013675884977640637846230 0.000290713632398660300551
292.000000 -0.003342807176413744880278 0.001955096529191417166482 0.010200977422391425616932 0.017926826110167340400103 0.014414880046626952006528 0.000314342193877265377311
294.000000 -0.003562168924930194605777 0.002021110105165503482982 0.010729058783720300113140 0.018893356149455850512275 0.015210436466000867156145 0.000338994502534082178292
296.000000 -0.003793438721529147298478 0.002101300358275623968163 0.011308632466903804567049 0.019944310389304116537534 0.016074492295725384405358 0.000361749486697980442412
298.000000 -0.004034216148334880160109 0.002202541288923779132930 0.011951672569632750681157 0.021095609698169270201928 0.017014713171379671624583 0.000379474915877408669040
300.000000 -0.004283321482489540164840 0.002324387919456276548058 0.012655662259433349617344 0.022342827545985790432814 0.018023667340532595337876 0.000390546196033129695141
302.000000 -0.004544318224391981873855 0.002449082287655384316399 0.013386429140672711363136 0.023638724836969552539623 0.019065478744329747429198 0.000397875694345305435523
304.000000 -0.004829239082040060436485 0.002535211337682222350332 0.014069764178373628596419 0.024884157173080772434970 0.020073399647224043906846 0.000411059802353665247436
306.000000 -0.005157403186973897810108 0.002526187100281344043162 0.014609070532836889236283 0.025953084547112478114306 0.020969592232716591229114 0.000444470459059721854228
308.000000 -0.005548146519260548081842 0.002370749501581099691339 0.014920117437515643607493 0.026736828467489339583585 0.021694426203726684121431 0.000512504897780974451836
310.000000 -0.006013439082065990919090 0.002038725118715982703027 0.014953343647913366204483 0.027169126893598950084341 0.022220854397431471366486 0.000626707479400951555405
312.000000 -0.006554007284765849504493 0.001525103492659650146826 0.014694152239494858228075 0.027221936383933151293313 0.022548707818051998835740 0.000795302896744758862704
314.000000 -0.007157930497931164030845 0.000847569503047067383111 0.014154237475223768391586 0.026892274092378369576561 0.022691094570009593539561 0.001021501745296873008007
316.000000 -0.007802020926380581408721 0.000040632710170972938496 0.013363682720154475974672 0.026195467757611529124873 0.022663886804358764764933 0.001300291174391128568022
318.000000 -0.008457097553295111341809 -0.000853511851318890105503 0.012363177567544864771110 0.025161918723833356231756 0.022480956955274092323727 0.001617910502891032166820
320.000000 -0.009095371262982090629357 -0.001795228243330440707354 0.011194390961650169460939 0.023829859091064890114220 0.022152436264322235281998 0.001955780358426382169179
322.000000 -0.009695667949230119680992 -0.002753679332189972774059 0.009893456175840894054052 0.022238794728683886764431 0.021685130549743220074177 0.002295169976881182832135
324.000000 -0.010244926702204431440135 -0.003707118277923515062972 0.008491885143891602857891 0.020431267673234006221339 0.021086678251383942500619 0.002620182084671483346144
326.000000 -0.010737735261807389991473 -0.004641088103448317431221 0.007019575006007609460634 0.018456764259194867461300 0.020370089097576347253460 0.002919813145366177697948
328.000000 -0.011174062412885165523901 -0.005546551257541464108325 0.005505160021665564569482 0.016369862822631930238115 0.019553372194990117222124 0.003187568574565292477824
330.000000 -0.011555038949573073064903 -0.006416896688482611257887 0.003976063823075197574408 0.014225978277882977279800 0.018655478706709083258630 0.003417146293237304476020
332.000000 -0.011878753150020333537173 -0.007244015870979952573250 0.002460345941783985065920 0.012079297476986022852330 0.017693124852769751692572 0.003598021340881631374015
334.000000 -0.012137438287690994684342 -0.008014550478696251534227 0.000988816510207929074208 0.009981256551299090562512 0.016679446694643478704689 0.003715664184897474534020
336.000000 -0.012316219480972490779580 -0.008706271632510103122837 -0.000401963503644950587504 0.007981433529374967056347 0.015627292488169176182256 0.003756548678205253854329
338.000000 -0.012394392055369367680595 -0.009285841576218645254670 -0.001665404041296843435163 0.006133494974577664848869 0.014560304674417655010354 0.003714980551629777551920
340.000000 -0.012351808755326107794326 -0.009714632000599864730672 -0.002748502346514089013374 0.004495134626021001118812 0.013520922636093753513298 0.003598591762511715603373
342.000000 -0.012178503484612308860324 -0.009963749844227817037412 -0.003608643883018419588893 0.003112763263734489270484 0.012560001864474890434509 0.003429197518283706464653
344.000000 -0.011879216248816260731447 -0.010025898769273133143143 -0.004230171634281932116495 0.002003559184958730865489 0.011713390523491866782035 0.003236411202972165786218
346.000000 -0.011469017377832686765959 -0.009913706961507000314793 -0.004624937756423278152618 0.001153759956962179282144 0.010987908478710525436717 0.003046461664874594056640
348.000000 -0.010966266884143999887913 -0.009650023645669093472210 -0.004820704584783132816417 0.000531026880497542587596 0.010366088093580975298957 0.002874197822438155983105
350.000000 -0.010388560366056159151027 -0.009259931386921762749842 -0.004850160054681148559530 0.000096869992172072090985 0.009819333910563035963670 0.002723042592962006489682
352.000000 -0.009750478880041922938315 -0.008766549521401966957312 -0.004745402113350364811661 -0.000187236843700654663220 0.009317124097687742856344 0.002589403908565274334969
354.000000 -0.009060128997876133044587 -0.008187526545485135018310 -0.004534669916007391318735 -0.000356955912778564971814 0.008829461310687465591673 0.002465818288268078507797
356.000000 -0.008316185592746334898084 -0.007531807602188854075531 -0.004238421024768504116742 -0.000440928693186206505095 0.008328252684875206424131 0.002341157530545335489075
358.000000 -0.007512127887526984584832 -0.006802059628639105237635 -0.003868045797744412706010 -0.000456759169912660380024 0.007793135388457520136563 0.002201155577191335737525
360.000000 -0.006645571325020427529140 -0.006001779452675851285470 -0.003428938735812351885218 -0.000410827207930281068128 0.007217657194620254526574 0.002031428367849747243512
362.000000 -0.005723140756131264196560 -0.005139674833987644894662 -0.002925104997412086935832 -0.000302929460087303012699 0.006608084284292541077388 0.001821114317756735616685
364.000000 -0.004761964113170025041100 -0.004233031600231667267165 -0.002365909544796852403276 -0.000135201107638160993507 0.005976175883500202921927 0.001565842458180959984385
366.000000 -0.003793006692729677682002 -0.003313577724825895326477 -0.001774492741145584267029 0.000078363568433058769492 0.005332810934819734102752 0.001270550483093020512765
368.000000 -0.002861506167295042608184 -0.002428804879532133441378 -0.001190136195751328182860 0.000309075401165094163208 0.004686297591482248454942 0.000951295542055757923500
370.000000 -0.002019090820955423293964 -0.001633021932901972811392 -0.000660237991244364734802 0.000519984346681427733738 0.004043881554060855393340 0.000633999074013619342768
372.000000 -0.001311662726814586928462 -0.000973828135814144043962 -0.000227806172648486158789 0.000676212453289142261144 0.003413656839073335273749 0.000349251175726309663963
374.000000 -0.000767834619856227443453 -0.000479914495256936169364 0.000080006917664541231383 0.000754884275891558125492 0.002806627229955028883512 0.000123613593541661875201
376.000000 -0.000390709539118571063786 -0.000152879168381878560636 0.000259849489410806896213 0.000752478065381177252738 0.002238711860008081241946 -0.000029095198388219645165
378.000000 -0.000158708606669859529940 0.000031355064064285005361 0.000331420931447129680277 0.000684735069262941311967 0.001729389988468554633858 -0.000111310539739182889169
380.000000 -0.000035566432202691677174 0.000111651812642657463181 0.000327912502046215554620 0.000578544763976400651384 0.001295791918075021083995 -0.000138527321570788332101
382.000000 0.000017589828901530073473 0.000128774977673004847704 0.000284261021145436429836 0.000461551380575481108755 0.000946479751419310416476 -0.000131762122258691238320
384.000000 0.000032837774541296779122 0.000115504080044832047329 0.000227900872944546953238 0.000354030300879322294694 0.000678969176233415309431 -0.000109872083707864988248
386.000000 0.000030986803629044187879 0.000092147913149659372916 0.000174565896513241390490 0.000265569138519169175693 0.000482112829190992216947 -0.000085092601791773698713
388.000000 0.000022745776337061666549 0.000068204341229292000785 0.000130069219104233391041 0.000197231939047421821892 0.000341169506635454508441 -0.000062884866274352059284
390.000000 0.000012828578866809031318 0.000047029594745485749877 0.000094934240453348458307 0.000146067232270257222823 0.000242078017803348295592 -0.000044617426504880488560
392.000000 0.000003309691578828770909 0.000029536847144085095227 0.000068002490477677329838 0.000108440129717514221553 0.000173458130240372094709 -0.000030134645207430502432
394.000000 -0.000004770529983003125896 0.000015869600819164931047 0.000047942119348153622901 0.000081258192841065924185 0.000126660437656032573168 -0.000019021615951578438027
396.000000 -0.000010915291233608280812 0.000005850886171469109806 0.000033541274233328004424 0.000062068313441595733462 0.000095218083069923073751 -0.000010861364172424847952
398.000000 -0.000015125689055350707724 -0.000001039416657445409439 0.000023572893831520280917 0.000048798238831779205645 0.000074310853046073271347 -0.000005175070520190065310
400.000000 -0.000017708525646466028223 -0.000005482191291422691955 0.000016896637194645228370 0.000039761689550271260161 0.000060457534028468636522 -0.000001411438661173862729
402.000000 -0.000019073063996899876604 -0.000008165887649702084026 0.000012518795855758171778 0.000033613450793053003759 0.000051198738257736180147 0.000000963032583605594531
404.000000 -0.000019588969890931456533 -0.000009650889349979561004 0.000009679584725270127282 0.000029371393067657260362 0.000044867653628024984735 0.000002387299237076895432
406.000000 -0.000019566781414212872222 -0.000010368782947050393184 0.000007834137920509736384 0.000026362248612383158252 0.000040398275469151079134 0.000003198518204666233685
408.000000 -0.000019220430102794815863 -0.000010616578942611292009 0.000006607912627942523248 0.000024129597590760403620 0.000037087847160605967394 0.000003620346450047685020
410.000000 -0.000018681329005829517415 -0.000010579021744082288354 0.000005766412707910864506 0.000022387151794177048497 0.000034510391747719306084 0.000003803115063507232302
412.000000 -0.000018062043313211345651 -0.000010400066867909581192 0.000005142472110225764927 0.000020944512796636091467 0.000032405842605718778707 0.000003853747066193097571
414.000000 -0.000017404959897253450803 -0.000010139387704377205939 0.000004658405963783714563 0.000019702018504613238932 0.000030603489312521305922 0.000003824181893791559933
416.000000 -0.000016731436424747394350 -0.000009832093802801147080 0.000004265085527481283013 0.000018598273257162012162 0.000029003863221336994313 0.000003743078385986676541
418.000000 -0.000016065053970858638393 -0.000009509279986894774884 0.000003925453587728208866 0.000017588727758160824395 0.000027544916190121195146 0.000003637393620921324769
420.000000 -0.000015410353570110662109 -0.000009181053906517168189 0.000003623172018996207968 0.000016652366257096004305 0.000026196834188086362191 0.000003509939182213391415
422.000000 -0.000014768708428077725672 -0.000008845389187513709282 0.000003360490649537366717 0.000015788590657713364590 0.000024947447124224916522 0.000003376950083907922656
424.000000 -0.000014135895277514149172 -0.000008503726299011624894 0.000003128938325876261325 0.000014981097974185130143 0.000023765704140299917778 0.000003234395219468398657
426.000000 -0.000013522988639508433148 -0.000008161343182546962471 0.000002930065466897602927 0.000014236090383466408005 0.000022661694092139959882 0.000003095663414063385928
428.000000 -0.000012928971862623572954 -0.000007823363401763036963 0.000002755489139190109146 0.000013542701462460295027 0.000021617687414495063666 0.000002956536744544506525
430.000000 -0.000012360083490911606159 -0.000007498431170184352757 0.000002588209396878506408 0.000012876776017205217274 0.000020625612433001085084 0.000002833275261149283613
432.000000 -0.000011802575459838119938 -0.000007172379949864780127 0.000002443249107818144578 0.000012254451611647878626 0.000019680139897872374517 0.000002706913630777673624
434.000000 -0.000011278342806339466806 -0.000006869449980072425837 0.000002299418315212259688 0.000011658840159428158811 0.000018779614958633523042 0.000002589644157597119832
436.000000 -0.000010771839566473262394 -0.000006572918822748213087 0.000002167166003393233566 0.000011090826869308599226 0.000017915716695464891013 0.000002479261009734736748
438.000000 -0.000010280542992018224094 -0.000006278354139077085583 0.000002051570270625791667 0.000010557602107167349630 0.000017093721881466557170 0.000002375782747509545343
440.000000 -0.000009803811313897898874 -0.000005989829120636044226 0.000001945821576048861084 0.000010050182511615386076 0.000016301924533040852071 0.000002268892202064869466
442.000000 -0.000009340565743217745824 -0.000005708539790184078241 0.000001846679504114608233 0.000009564144532777424428 0.000015540469439341552809 0.000002167809435370129095
444.000000 -0.000008890057743815572811 -0.000005433145900771085193 0.000001755271665687032842 0.000009100238032321395244 0.000014813942302157687977 0.000002075944859170790313
446.000000 -0.000008464725987179676827 -0.000005179397948894570645 0.000001655777483865695250 0.000008643064400076307422 0.000014100474092855797589 0.000001980819761607354551
448.000000 -0.000008041380809075524789 -0.000004914035426968739994 0.000001589527017429111813 0.000008238162782653252189 0.000013431849130747349882 0.000001881907379037229126
450.000000 -0.000007632481836643183404 -0.000004655113381814658350 0.000001531011433712330045 0.000007854187456429152986 0.000012786910723787575005 0.000001777088787400155285
452.000000 -0.000007233975468408381749 -0.000004400587680496047106 0.000001479085917108476337 0.000007486707874106861902 0.000012163192127028587991 0.000001679463788149536369
454.000000 -0.000006858531478681775661 -0.000004159699674848032069 0.000001429453871197821678 0.000007136899445260365872 0.000011569013251327285488 0.000001587534958680871779
456.000000 -0.000006509333699098557405 -0.000003938769927439555206 0.000001376385366057608964 0.000006801522330382625450 0.000011006373410122681801 0.000001505291772017659602
458.000000 -0.000006196065700627190145 -0.000003754980560289856625 0.000001299828505354183640 0.000006461279833830545750 0.000010465868667614550337 0.000001430870955514774874
460.000000 -0.000005894218506257435589 -0.000003574911027464384272 0.000001231564298830142341 0.000006139310666798127139 0.000009949634293293245545 0.000001354715968661184425
462.000000 -0.000005618345352997442534 -0.000003416486745155335162 0.000001153863730109519046 0.000005823600097297028471 0.000009457524027006001754 0.000001298442236749147315
464.000000 -0.000005346673807234107570 -0.000003250828087313807703 0.000001096030115510884158 0.000005536033561398688352 0.000008985739673075637102 0.000001232955099469094635
466.000000 -0.000005094836288923221272 -0.000003102863686887005447 0.000001034980130811291084 0.000005262788175089174592 0.000008549941752578463282 0.000001173664506859294467
468.000000 -0.000004861695427823816627 -0.000002973879010309420190 0.000000961364642132815909 0.000004987139433025859356 0.000008128369547908359546 0.000001119536252003875217
470.000000 -0.000004627445811180953554 -0.000002830616163229916005 0.000000912495265328462782 0.000004740986439639062268 0.000007730182287682419641 0.000001069665985230533850
472.000000 -0.000004402041777962861087 -0.000002690860991085077674 0.000000869612330506947787 0.000004509392535072974534 0.000007349723973977241973 0.000001020975661203749286
474.000000 -0.000004191020903990417305 -0.000002561169299640456278 0.000000829270970072681447 0.000004294812101635562390 0.000007002405275453361514 0.000000976506208915607421
476.000000 -0.000003990136554256549724 -0.000002436452971577927258 0.000000794883067665809073 0.000004097367141589413025 0.000006670797349995934732 0.000000926588269580124668
478.000000 -0.000003792233232518740489 -0.000002308364915245549022 0.000000769363355660481719 0.000003912604365964328463 0.000006365071879820434001 0.000000876881416739035031
480.000000 -0.000003605938403124993832 -0.000002194856273800970483 0.000000731582497800800879 0.000003721302339602337376 0.000006058737254798774879 0.000000839331127157837388
482.000000 -0.000003432423968081116608 -0.000002091717665427356755 0.000000692583432058833195 0.000003538189652502644182 0.000005753273794276394532 0.000000799775461786663299
484.000000 -0.000003271298720961265014 -0.000001996832376434482808 0.000000654058409602991764 0.000003364544583255153196 0.000005479822416814024529 0.000000760355543848827538
486.000000 -0.000003100154164129375542 -0.000001882318677255632692 0.000000641125461801182759 0.000003218010403796290255 0.000005217308238502660299 0.000000721149571444370002
488.000000 -0.000002927645776848656462 -0.000001767167395071538697 0.000000627970317212639644 0.000003072663194954166871 0.000004958392986769553577 0.000000673715261235327447
490.000000 -0.000002786814141422882567 -0.000001678845499757871618 0.000000605676872477871680 0.000002935550331800160931 0.000004722976376808815026 0.000000642691029105717302
492.000000 -0.000002655762133349502537 -0.000001604177635423528444 0.000000569602382631390724 0.000002787706934085907314 0.000004489988111084324635 0.000000609028328285455574
494.000000 -0.000002518098515445288068 -0.000001510582041730708811 0.000000563380216936843317 0.000002675587435899744342 0.000004279930762624067493 0.000000572124763318198975
496.000000 -0.000002401849620181343853 -0.000001449018166198644743 0.000000520417928137693939 0.000002529245582249816520 0.000004059767475911462021 0.000000549233562170024347
498.000000 -0.000002295817860231856310 -0.000001389937736443001524 0.000000489241354717004172 0.000002406390739120773687 0.000003865756863631088055 0.000000526152619977955767
500.000000 -0.000002171707720425302387 -0.000001309253969298605900 0.000000475560918166169653 0.000002295118252448009688 0.000003679267449624885482 0.000000497650410977020864
502.000000 -0.000002062319322953626256 -0.000001239424916067529817 0.000000458825813542677908 0.000002191715976465590773 0.000003501542960324258443 0.000000474821826484922887
504.000000 -0.000001972359523974096126 -0.000001192567082035543243 0.000000421008648140518585 0.000002070233455953895063 0.000003329649735730149553 0.000000461739613705467407
506.000000 -0.000001878582742158674654 -0.000001133926442642631033 0.000000405556515945921183 0.000001978286801095796942 0.000003176129325095282669 0.000000431583382591767753
508.000000 -0.000001791619900606623721 -0.000001080293130503819345 0.000000390470020674389787 0.000001892769778262055652 0.000003038873361553311213 0.000000414367170130204715
510.000000 -0.000001717820951702262915 -0.000001044779081989960404 0.000000358669648034826092 0.000001795650663074348408 0.000002886636198874833672 0.000000393881139149457885
510.580000 -0.000001692830767830700909 -0.000001029392848149569438 0.000000354038816959663347 0.000001771314988786683371 0.000002847674256768003147 0.000000391348594518090881
