0.000000 -0.000000000000000000000000 -0.000000000000000000000000 -0.000000000000000000000000 -0.000000000000000000000000 -0.000000000000000000000000 -0.000000000000000000000000
2.000000 -0.001040605263812461028089 -0.001953695680960018492278 -0.003620316861478900961197 -0.004220871692471589789464 -0.000840389357108155092557 -0.000096648011858351933617
4.000000 -0.001415679371381509512109 -0.002726057466505375607990 -0.005867202623721234563958 -0.007401652777956889764366 -0.000862706237973323315088 0.000184348308134295725373
6.000000 -0.001239233035711767051679 -0.002804307701519395765871 -0.006934341568382496566458 -0.009402136515045355497078 -0.000874273266274699944502 0.000321042267040205601958
8.000000 -0.000939141478413603111863 -0.002798879227150506947969 -0.007845515924197498866532 -0.011355808931114848639443 -0.000865526562263548146156 0.000508003874287963675706
10.000000 -0.000867333865858983875212 -0.003230833642516755307289 -0.009593816914853375149574 -0.014369197465968494911714 -0.000841254145293539507856 0.000826951365192385803339
12.000000 -0.000932846783328858029059 -0.004187559146235917892365 -0.012811983891028718568483 -0.019566065254670389483849 -0.001135688294513111963602 0.001168084069528956166206
14.000000 -0.001133120610464015539862 -0.005704619310826407330151 -0.017665044311384877490090 -0.026999034355666223783388 -0.001447920266404324274659 0.001719627172063614272551
16.000000 -0.001951725719074030212033 -0.008797401002766876837446 -0.026026074368919630691588 -0.038377519215225502913214 -0.001962020075505685554745 0.002481672381659563633022
18.000000 -0.003535731752653392592073 -0.013040885217583236474481 -0.036077224607264306299736 -0.050734564785079767912368 -0.001861609900378163266060 0.003654306976489015909570
20.000000 -0.005486139595162127166605 -0.017895948783531887005260 -0.047135489805319716327681 -0.063743643077364714466526 -0.001698444519826952225222 0.004925054728696249065067
22.000000 -0.007445521234502735022365 -0.022607235120107822823332 -0.057518271817681501656416 -0.075808373537837842048859 -0.001723822385990066803282 0.005955946345793789592493
24.000000 -0.009100409814053531457057 -0.026419359418988024729158 -0.065568184584649941148982 -0.085103167197467424753832 -0.001662759780111028925370 0.006825998485725029429894
26.000000 -0.008535520061624642454423 -0.025642042949909002458320 -0.066050227937283670365254 -0.088176804559038035602470 -0.002374962630047003277894 0.006738290327727501465016
28.000000 -0.008619448938961424278027 -0.026068099769863455061891 -0.068343798195709848375401 -0.092544326803468135445030 -0.002616157470177181074145 0.007027038646421894518834
30.000000 -0.007793644585153546890111 -0.025152791372106377693063 -0.070803377194103150893412 -0.097762531013444856076156 -0.003449186909204659395867 0.006700745379404306721616
32.000000 -0.005626589788581575456161 -0.021661173578831880576212 -0.069270642858604097868991 -0.098978030298171662537676 -0.004874161614766838249158 0.005580617621606913901500
34.000000 -0.003439923900274145275591 -0.018162599569765621593254 -0.067025765168974238417121 -0.098885931356302733674646 -0.005768171359672641385075 0.004663139491309438618150
36.000000 -0.001231654711265050541544 -0.015359094953884856737947 -0.065146404603099575258973 -0.098549253755876434213157 -0.006818063315914162092479 0.003438846688255399464129
38.000000 0.001003236713047196172754 -0.012826840801485094381573 -0.062960375903229115479576 -0.097226735061059929576821 -0.008157039326475651677684 0.001901170989166435162931
40.000000 0.003200011912336276406060 -0.010866939446917940961801 -0.061340999220960153170967 -0.096137673391744157824768 -0.009559819805671086051513 0.000191223416667429368509
42.000000 0.005761984627007858336678 -0.008529408840324230814400 -0.058860737482231605122163 -0.094042141442352317204367 -0.011568050749280519434725 -0.002045381524915572575563
44.000000 0.008212652920363361017109 -0.006433791470253420741177 -0.056131906601806370871177 -0.091365754270502960721068 -0.013687878393309685712276 -0.004238050988186694949256
46.000000 0.010670855554520375721439 -0.003468526445906637990096 -0.050982760137137241029937 -0.084871297587921348815065 -0.014248239117910465462158 -0.005461084357603952256499
48.000000 0.013659464915237647456014 0.000016064894934396074051 -0.044080255802075203608315 -0.076009819489406452164282 -0.014755031003539835141036 -0.006765958075836272893333
50.000000 0.016990290254410310433197 0.004165054401839052115875 -0.036102136762588318830147 -0.066454665798387005382075 -0.015751229246374509607165 -0.008440213239731864797166
52.000000 0.020119178444697405350183 0.007727072448630954194793 -0.029113638704213060104387 -0.058119966521893003108534 -0.017131126265476727399406 -0.010253795427880326232573
54.000000 0.022524675539390796863426 0.011008895024931511161248 -0.021367479905042695287332 -0.047813724412017873099945 -0.017981263896892120401905 -0.011871568563809303809009
56.000000 0.025202387142136309372553 0.014572664112788021040235 -0.014008999314780478870346 -0.039070858565081689750542 -0.018353197073822900831086 -0.012969304070829952221788
58.000000 0.028084379853510241242809 0.018293671259788316790784 -0.007074729455983722221923 -0.031227719197787776744812 -0.018575938431538267098242 -0.013828165804090514559577
60.000000 0.030328137662277890318485 0.021880664542185394860763 -0.000204474967765011609059 -0.023640601747404673543818 -0.017668808040017781879616 -0.013420898702300980073754
62.000000 0.031167355081782897180398 0.024495361057752511324548 0.005930051525184801448909 -0.016463861556416149040105 -0.015820896986601384881510 -0.011847991284389652877351
64.000000 0.031485382206733539267596 0.026021042146922388621499 0.009808329857617670635705 -0.011845701859735513830629 -0.013883356806399670471674 -0.010115738358631934032394
66.000000 0.031044738482304701926440 0.025805891600595529111750 0.010842523357750821766388 -0.010086897195128148932430 -0.013125189255335827781535 -0.008839105407946096920613
68.000000 0.031253175509389885533551 0.026249046327408227102795 0.012599551885389763741796 -0.007860901415146830106817 -0.012901997390083200234479 -0.008337305173333352595333
70.000000 0.030927850828126803028884 0.025937548550524287122032 0.013428563433303404572872 -0.006416426618582213477204 -0.013102224785374694954188 -0.008257156165363016553371
72.000000 0.029160250423915099610150 0.024225264389622674227054 0.012557928934081693389535 -0.006301040246196641138321 -0.012810564353681301238974 -0.007615740000655821934084
74.000000 0.028224894560507484547740 0.023097947770997707267471 0.012161720388068720383190 -0.005865248128649833830872 -0.012535628977794560645620 -0.007296453026288812759859
76.000000 0.028077456719942304325111 0.022258592658971391997635 0.011878661203470437107699 -0.005464563939120614145806 -0.012680468816059964690113 -0.007324041792650837212619
78.000000 0.027205199009154606981653 0.020668031168108957212892 0.010866020836933450166573 -0.005477204100580558045197 -0.013238550872775244407475 -0.007668892800503728478245
80.000000 0.025679878292337608713947 0.018756823492346943321740 0.010355854330860591802632 -0.004654527575048903777211 -0.013609083945766339493466 -0.008019782213174045729098
82.000000 0.023881627410879281009359 0.017013548713918861393646 0.010417335266090380421766 -0.003110366953423507937332 -0.012965312257825895719821 -0.007651980232764212484786
84.000000 0.021643703498185846989532 0.014990301175260550142765 0.009915021459871053988167 -0.002070558047150504107914 -0.011952492451661132430440 -0.006978103887759130354029
86.000000 0.018445894423133962769512 0.012257327133095220761394 0.008428219435429665229442 -0.001844562042144451017786 -0.010777672180961579348479 -0.006061611481526199725345
88.000000 0.014313037774851992273151 0.008756008668697055213892 0.006056471939290973896530 -0.002104686718739832117231 -0.009311556864167055969084 -0.004910072210474039806904
90.000000 0.009352382566546749848024 0.004538669705319149823286 0.002779903756658730264867 -0.003126493275894372605994 -0.007602040230969135323202 -0.003460243646913083864769
92.000000 0.005906731143765824899872 0.001859823524032844493242 0.000755319393741466470205 -0.003473572007832274183281 -0.005840133085343259325417 -0.002066945291052412793376
94.000000 0.002818541379728348519884 -0.000330440410258558015660 -0.000893337271815403425809 -0.003634353128000564030209 -0.003805946853737317975286 -0.000460864302542595750435
96.000000 0.000572763234275747135614 -0.001767934479832569596297 -0.001870550406731171866684 -0.003423543109367869173576 -0.002518541604228234295770 0.000326943751999963767938
98.000000 -0.000556477790246391861712 -0.002171140197966048724504 -0.001907127327129285680046 -0.002572480545946999232892 -0.001606147105450098132653 0.000588934643181689707406
100.000000 -0.000884922700611087166556 -0.001788597497564033654560 -0.001248928011692215182121 -0.001274213663392840178643 -0.000888342487994333825443 0.000532857759251480016770
102.000000 -0.001103113215691496964976 -0.001376624540949337310858 -0.000650079530251791389873 -0.000165185320846743065705 -0.000078832711592073954942 0.000653555480889188387256
104.000000 -0.000965211348142854495824 -0.000910529664933340684117 -0.000031375963341054879962 0.000699833084136834075555 0.000196203607546400631044 0.000512682010497199228474
106.000000 -0.000553098276928614285969 -0.000362185698295797490164 0.000685294388148482242970 0.001452410598371544486751 0.000320117795673315345874 0.000381403699087967576042
108.000000 -0.000226519551124705799264 0.000082559367788186767195 0.001232163436861103593747 0.001993789639116095701449 0.000349016049657389535680 0.000280627723302111328936
110.000000 -0.000056434487773620514576 0.000281500625881522293942 0.001519333655664597366661 0.002313346674624306917312 0.000210365877080301327167 0.000036974230252864370900
112.000000 -0.000112162826769627899147 0.000251293113937042344574 0.001542603042906751749028 0.002397486596266747670148 0.000210250762854156134172 0.000003519045799827492648
114.000000 -0.000216767271202527049469 0.000173852673484801051621 0.001506236508726962889174 0.002425634911513886368684 0.000264835716164741816203 0.000041618492684952074212
116.000000 -0.000305465307442028151646 0.000112825327204372298485 0.001482898454735450321715 0.002460929272021707830964 0.000314184886696375895773 0.000071697000480929018820
118.000000 -0.000380211257132153062754 0.000065017161899981164644 0.001469345346862079362826 0.002499925615254977671192 0.000358756066562607319435 0.000096077294008101063157
120.000000 -0.000442291021542241390586 0.000028325568941519937830 0.001463678053669108377818 0.002540758738625783965531 0.000398263179930022099412 0.000115596747597603474972
122.000000 -0.000493239359872813974348 0.000000745126829567460182 0.001464192052733784363966 0.002582064292444816427236 0.000432696677022261486957 0.000130988640717832237814
124.000000 -0.000534721598702525427807 -0.000019594848961491034356 0.001469360117372940860783 0.002622854667797846952432 0.000462331996185091464568 0.000142982952109551323056
126.000000 -0.000568355061700632005484 -0.000034321436502861856247 0.001477916726279513218167 0.002662501382018052017986 0.000487622218959587279061 0.000152258547829311758747
128.000000 -0.000595603802159278342132 -0.000044777236601652165146 0.001488878571431542178344 0.002700680303635129200085 0.000509102009545147325166 0.000159406715005757656329
130.000000 -0.000617735736072385992722 -0.000052030822455768916811 0.001501522341268576908949 0.002737305482757275768013 0.000527320974796576967189 0.000164917383976645286203
132.000000 -0.000635814604184894776803 -0.000056907850434542953002 0.001515342192170383590205 0.002772458372663718240841 0.000542805379891888499858 0.000169184667469275391936
134.000000 -0.000650711669661167878623 -0.000060029900262745113342 0.001530005682025243002667 0.002806329330279277653459 0.000556034214653988874931 0.000172517257804274661221
136.000000 -0.000663135122817090833826 -0.000061863965923528350618 0.001545302247281192184469 0.002839165673409730587112 0.000567430159900819534348 0.000175152992393630386287
138.000000 -0.000673651379705454190529 -0.000062751448673881911355 0.001561114446032452239901 0.002871241272337213181615 0.000577357577661837657011 0.000177272984551416027408
140.000000 -0.000682708769145111719553 -0.000062937927258920685521 0.001577391323367604864664 0.002902835814776016064298 0.000586126234229884259495 0.000179014564171413434381
142.000000 -0.000690666097016025899887 -0.000062606243933510912891 0.001594117310436418471706 0.002934213834768624202393 0.000593995245386494158564 0.000180480704054569236110
144.000000 -0.000697801281030518039290 -0.000061880430643730416785 0.001611311787061582177435 0.002965626034813938043111 0.000601178387032330510502 0.000181747388959061227957
146.000000 -0.000704336147942459457789 -0.000060851207904729386121 0.001629008776643486216054 0.002997300912005565736579 0.000607852872791896786664 0.000182872292853154019528
148.000000 -0.000710441165628945803766 -0.000059579601504499081932 0.001647254146458285075511 0.003029444723788049954188 0.000614162822588395422400 0.000183897401370139006735
150.000000 -0.000716253696204925661105 -0.000058109083742248286068 0.001666098526845667974691 0.003062243580166300067208 0.000620226066517855331890 0.000184854030336942839856
152.000000 -0.000721879687758518570791 -0.000056466244109528744761 0.001685598082955322906881 0.003095866395109272192071 0.000626139207890461521946 0.000185765813151592969850
154.000000 -0.000727403330320908485425 -0.000054669766173589668366 0.001705809018646948539699 0.003130465668287529725639 0.000631981243024461658217 0.000186650324172208076194
156.000000 -0.000732890923913390602423 -0.000052729584942749229185 0.001726789705704241846551 0.003166182312658680220174 0.000637814574055727326850 0.000187519329596600044761
158.000000 -0.000738397113781975823407 -0.000050651978364518611593 0.001748597733847290398856 0.003203147100381344234560 0.000643693517014357736127 0.000188383083748363308173
160.000000 -0.000743965433005182676975 -0.000048437958453826529016 0.001771292932008617466641 0.003241484105959232912830 0.000649662483753141997353 0.000189249077077650851818
162.000000 -0.000749631759025975921013 -0.000046086161105480693732 0.001794935415833062968688 0.003281312505669298305172 0.000655758642710427296953 0.000190122636324272957032
164.000000 -0.000755426255369978975028 -0.000043592631578129610440 0.001819588069447515901733 0.003322750318996987861642 0.000662014395088800808135 0.000191008070670277408081
166.000000 -0.000761373961828839640291 -0.000040951988383843846559 0.001845314958612196808846 0.003365914374019970609075 0.000668457721603177507444 0.000191908095481500493018
168.000000 -0.000767496984044543223424 -0.000038156048175960649072 0.001872183584587130576390 0.003410922595642615351430 0.000675114549623523439031 0.000192825898622963866824
170.000000 -0.000773816719428183563342 -0.000035198931074507739585 0.001900262026609469186850 0.003457894788499836155604 0.000682007733854323003504 0.000193763352591656482079
172.000000 -0.000780349437593907458745 -0.000032068620512929293161 0.001929625523466621311516 0.003506955975703109421038 0.000689158192961597700077 0.000194721049135024954976
174.000000 -0.000787113351211420932130 -0.000028755496428377770314 0.001960350752481404036642 0.003558235519705702388366 0.000696588340438295764573 0.000195701698804243395509
176.000000 -0.000794124696898731107474 -0.000025247679789738251008 0.001992519788873422636327 0.003611869173868853533094 0.000704317754571936170162 0.000196705364982788547760
178.000000 -0.000801399299886771613460 -0.000021532516049802231863 0.002026219496246204395534 0.003667999829732880839178 0.000712365781584658498693 0.000197732008115916166107
180.000000 -0.000808953959470063896885 -0.000017596016588580764959 0.002061543723883684647857 0.003726780706167267739892 0.000720755096135683621938 0.000198783874947683570017
182.000000 -0.000816803933489316721928 -0.000013422572338400114075 0.002098591618564324672719 0.003788372531476452177712 0.000729505310265834484330 0.000199860128339684014380
184.000000 -0.000824965068442580257320 -0.000008994551833172248712 0.002137470351690771378644 0.003852947999879067358941 0.000738638708618132933462 0.000200961166275473007139
186.000000 -0.000833455536635422170044 -0.000004295269887014529065 0.002178293239031166370762 0.003920691034037506773891 0.000748178663406226605176 0.000202087682382818563777
188.000000 -0.000842292661854398888241 0.000000694778132067329357 0.002221181334831308969852 0.003991796927406722310383 0.000758147696936167661899 0.000203238362400358726521
190.000000 -0.000851495133018550132316 0.000005997300661727993390 0.002266266913152151403488 0.004066477774013963798760 0.000768572734346972580473 0.000204414339357376141941
192.000000 -0.000861082232636131055317 0.000011634762803183781410 0.002313689799954091966955 0.004144957780267051819512 0.000779479028007597782648 0.000205614240478341301233
194.000000 -0.000871074602773136527807 0.000017631773124463741883 0.002363601557539537437874 0.004227480792447012997171 0.000790896587054983534956 0.000206838771148910556888
196.000000 -0.000881493907522890723927 0.000024014869312593597187 0.002416164292101951292790 0.004314306286895575395790 0.000802854740894685644029 0.000208086329125542696464
198.000000 -0.000892363863616364586320 0.000030812196965312524930 0.002471552347479284619108 0.004405713978968116978363 0.000815385661697043797116 0.000209356159309963691653
200.000000 -0.000903708644034315381442 0.000038055893929443544189 0.002529955286245965263153 0.004502005991171995069600 0.000828524556717824371688 0.000210647798076480150366
202.000000 -0.000915555084845737178131 0.000045778161500046904864 0.002591573292825133725814 0.004603503862007291176639 0.000842308343150928950059 0.000211960128878801236678
204.000000 -0.000927930906019941675704 0.000054016008482944014924 0.002656625779918413837732 0.004710557122222644096943 0.000856776281920568118927 0.000213291511064837206822
206.000000 -0.000940866867409571741923 0.000062807224696206448650 0.002725346096920162886068 0.004823539708070864913403 0.000871970892780927326303 0.000214640429918612040804
208.000000 -0.000954394880982483914678 0.000072194051241659048536 0.002797986230966981353874 0.004942853827206285764750 0.000887938096643356520460 0.000216005658308727913151
210.000000 -0.000968550131519481708429 0.000082220539552506564083 0.002874816669846816993145 0.005068932055219584932593 0.000904726577390010597290 0.000217385405428113017562
212.000000 -0.000983370527719221523832 0.000092933793122767195606 0.002956127459453111207266 0.005202238526966157863840 0.000922388007272514518983 0.000218777108469182091479
214.000000 -0.000998896012450764796825 0.000104385386742629983803 0.003042231312450815929743 0.005343272688103710768570 0.000940979788030487968205 0.000220179532451180023315
216.000000 -0.001015170192695692219856 0.000116628286882070625482 0.003133460474511657635477 0.005492566575555501637296 0.000960559764871356290897 0.000221589037636445022102
218.000000 -0.001032241913300176519575 0.000129718660013688607277 0.003230171078382920377137 0.005650691755281227537933 0.000981194513704243325911 0.000223005194400941657382
220.000000 -0.001050162108442213209150 0.000143716640067776616884 0.003332744195433799249545 0.005818259366968486084870 0.001002952952700054143134 0.000224425585342240355982
222.000000 -0.001068988260127090106702 0.000158682611445360132992 0.003441583116718179621157 0.005995919204256717170709 0.001025908909055763462356 0.000225848421397938634893
224.000000 -0.001088781883004698910339 0.000174680846337069086045 0.003557117842274195099184 0.006184364090908921370027 0.001050141808145070056180 0.000227272412630477544998
226.000000 -0.001109610989111773629232 0.000191776674880004963705 0.003679801440159534160063 0.006384326410764406059539 0.001075736679004583125005 0.000228697248091607867890
228.000000 -0.001131548463127634782110 0.000210036629663076595230 0.003810111583991336765831 0.006596580539257095032735 0.001102783243373148865801 0.000230122601301902506010
230.000000 -0.001154678679750272907514 0.000229523785354386698071 0.003948545957256293682802 0.006821940205675624396831 0.001131379476695759753874 0.000231551147068535876760
232.000000 -0.001179090871395924644202 0.000250303120062708641270 0.004095627113813365971495 0.007061260688741508029231 0.001161628104501926045736 0.000232985772476592301484
234.000000 -0.001204886058926845238820 0.000272433977597654559868 0.004251895210821849020733 0.007315435150256302532235 0.001193640294598315946401 0.000234432788867756702672
236.000000 -0.001232177521706780088870 0.000295971442692695885408 0.004417910467565648244270 0.007585397315852256475144 0.001227534324656841518281 0.000235900487987154334904
238.000000 -0.001261088562653135724048 0.000320967775798145632787 0.004594256485938343938236 0.007872127099960601892548 0.001263437242560700541835 0.000237399988696388385915
240.000000 -0.001291756804853931355978 0.000347471109551172679334 0.004781545395609548484983 0.008176661058488288863488 0.001301485640217895202800 0.000238944482169663917825
242.000000 -0.001324333147496921598077 0.000375530177111328266216 0.004980430416944879763730 0.008500110971952603428070 0.001341829179592198212703 0.000240550404096048227971
244.000000 -0.001358980499698094835184 0.000405200655520208193223 0.005191626054522153685400 0.008843693523015791826958 0.001384628754765995523740 0.000242232374327634259002
246.000000 -0.001395874913994776204268 0.000436553548568800037482 0.005415938048832691711909 0.009208774778879378827834 0.001430062903360950236561 0.000244003969364371393978
248.000000 -0.001435197228708057085381 0.000469694661197403245077 0.005654311567355215298325 0.009596934667757649195519 0.001478326902335968390245 0.000245870146780367295446
250.000000 -0.001477132052120748179763 0.000504781427517137838180 0.005907884423977361430802 0.010010042348917204402259 0.001529637503940080344236 0.000247823477779580590100
252.000000 -0.001521857198272470214351 0.000542049715007964904440 0.006178055064737291053600 0.010450344932430601779805 0.001584232522396086979832 0.000249835153094223830911
254.000000 -0.001569536549160676199358 0.000581837731511460542685 0.006466549358514830925238 0.010920557872713695587996 0.001642374087163115748203 0.000251848100690164043193
256.000000 -0.001620311853810165510920 0.000624606799518784283620 0.006775478458096092018725 0.011423940310874939121910 0.001704347290954944102101 0.000253769351118592523166
258.000000 -0.001674298751956958567974 0.000670949285907452880502 0.007107366942948328304708 0.011964331728084455497285 0.001770459279272829089535 0.000255466094569913948834
260.000000 -0.001731587062363351171845 0.000721579196712594968244 0.007465138146047219959434 0.012546132025858329137047 0.001841036740221574027898 0.000256766950375603641380
262.000000 -0.001792255891228477279048 0.000777287554241336406044 0.007852023940913974847655 0.013174187222101728031443 0.001916421133121585769835 0.000257471318598978798214
264.000000 -0.001856399437807733539263 0.000838863833868742198550 0.008271388454322591010648 0.013853561027647518302808 0.001996965579460783894727 0.000257372253163029075535
266.000000 -0.001924171617822202813575 0.000906973021823118227998 0.008726451613901096276971 0.014589182669947306850156 0.002083031130981601811852 0.000256291497442313540023
268.000000 -0.001995847490133790137073 0.000981999218705367511034 0.009219933656625423773479 0.015385395998497940206473 0.002174984254157158892334 0.000254125359859393054433
270.000000 -0.002071899393162805573521 0.001063869592077458948315 0.009753657950437876617000 0.016245460630504162530263 0.002273201879675477727477 0.000250902090682109395366
272.000000 -0.002153068996049047664071 0.001151900919685353453376 0.010328192225503698975508 0.017171098293453260913433 0.002378078772528497818878 0.000246835703510930382695
274.000000 -0.002240425846021430311000 0.001244706951081725031932 0.010942624441137900268006 0.018162208377468902487095 0.002490040533228138515398 0.000242365855678828358592
276.000000 -0.002335383543201372674725 0.001340224188505484545150 0.011594582492245656540897 0.019216875354541394088637 0.002609559160442119669920 0.000238168927649980188051
278.000000 -0.002439657294044519225684 0.001435881098432457893960 0.012280542399273404463589 0.020331714538171192369065 0.002737158398404710216156 0.000235125053056290165112
280.000000 -0.002555166149835435933368 0.001528896903526780160984 0.012996402418490786076499 0.021502543046632068696189 0.002873419796126368708916 0.000234247990119732901445
282.000000 -0.002683883677424814782897 0.001616682854713935840046 0.013738274241304145040221 0.022725329687829254332598 0.003018978041417924498141 0.000236572553956374855271
284.000000 -0.002827656207314287704901 0.001697292326590833138125 0.014503417220061903813999 0.023997361066083279512728 0.003174511244171551553606 0.000243009353104678069157
286.000000 -0.002988015990398163769515 0.001769866655522446584684 0.015291258891902109740002 0.025318586996681203410420 0.003340733883092351658856 0.000254179385537606607540
288.000000 -0.003166007678643427240839 0.001835039371999083127746 0.016104471243670225033551 0.026693127242710962959693 0.003518398682744242923770 0.000270239685563888453607
290.000000 -0.003362041674991449961146 0.001895272500784157560655 0.016950050490095808913837 0.028130857413573438080556 0.003708308717703941419924 0.000290713632398660300551
292.000000 -0.003575769230440927100301 0.001955096529191417166482 0.017840261282075012272408 0.029648828651831018315965 0.003911319118322346619077 0.000314342193877265377311
294.000000 -0.003805979840990766742415 0.002021110105165503482982 0.018792900946915137849746 0.031271653991143351369875 0.004128257467214577550174 0.000338994502534082178292
296.000000 -0.004050551448894019503089 0.002101300358275623968163 0.019829389067693676401705 0.033028596439457907907311 0.004359590952055483921435 0.000361749486697980442412
298.000000 -0.004306710631852245924067 0.002202541288923779132930 0.020967424207445378714354 0.034942756561475961374352 0.004604617348070137901328 0.000379474915877408669040
300.000000 -0.004572423153398531663061 0.002324387919456276548058 0.022203966344124713427899 0.037007221872455961508841 0.004860309820927835415538 0.000390546196033129695141
302.000000 -0.004849930518413685803791 0.002449082287655384316399 0.023490889793541275265554 0.039153523226714129212844 0.005120899651551111611547 0.000397875694345305435523
304.000000 -0.005149835926877526295908 0.002535211337682222350332 0.024723713373400419551773 0.041240696527837544804740 0.005379337688415549052767 0.000411059802353665247436
306.000000 -0.005490723822664776883340 0.002526187100281344043162 0.025766789829505372388940 0.043091284327658088693092 0.005629706053500343858331 0.000444470459059721854228
308.000000 -0.005892864607605730747908 0.002370749501581099691339 0.026500921815601256870121 0.044550398870291156583345 0.005868672777951388329354 0.000512504897780974451836
310.000000 -0.006371690494422182181322 0.002038725118715982703027 0.026851632747647142390734 0.045516421234670451090309 0.006096225811627188455322 0.000626707479400951555405
312.000000 -0.006934462678140677037442 0.001525103492659650146826 0.026785777913888985518609 0.045932747946844744435513 0.006315434239426515050653 0.000795302896744758862704
314.000000 -0.007578170939516674919911 0.000847569503047067383111 0.026298329799490722386013 0.045770605755183622898041 0.006529084874449826020326 0.001021501745296873008007
316.000000 -0.008288236392472780877938 0.000040632710170972938496 0.025406129451266367541562 0.045025140218794772184463 0.006734727570741229699114 0.001300291174391128568022
318.000000 -0.009040733734458754680685 -0.000853511851318890105503 0.024144742927569753931927 0.043717997690274811029010 0.006923317999158033232698 0.001617910502891032166820
320.000000 -0.009808691756182217127980 -0.001795228243330440707354 0.022559735508222933386691 0.041891428420369809793034 0.007082910263867581851516 0.001955780358426382169179
322.000000 -0.010568083198404430722572 -0.002753679332189972774059 0.020698225876668127631852 0.039599802512736766157975 0.007203115700352706769760 0.002295169976881182832135
324.000000 -0.011300449152142564776535 -0.003707118277923515062972 0.018609740044506346140496 0.036912006409839333287426 0.007277988964616670386487 0.002620182084671483346144
326.000000 -0.011993267908066658489208 -0.004641088103448317431221 0.016349719939784360112078 0.033916787341619979156970 0.007307919632480657651241 0.002919813145366177697948
328.000000 -0.012638297273131114673017 -0.005546551257541464108325 0.013977567409969459191754 0.030717614868924842524978 0.007298255381676100467248 0.003187568574565292477824
330.000000 -0.013227719743895898635300 -0.006416896688482611257887 0.011553163043939673054750 0.027421675477555411404307 0.007253559913013202936627 0.003417146293237304476020
332.000000 -0.013750303932838931278426 -0.007244015870979952573250 0.009136222787949489776427 0.024131213532444475977634 0.007172418977553272553815 0.003598021340881631374015
334.000000 -0.014189514240315273183035 -0.008014550478696251534227 0.006785918429048137454074 0.020935464593505103553239 0.007047236845691268875003 0.003715664184897474534020
336.000000 -0.014523742427822377426549 -0.008706271632510103122837 0.004561908415036870258208 0.017907833975630095546538 0.006869377554247594296066 0.003756548678205253854329
338.000000 -0.014728920434542847398007 -0.009285841576218645254670 0.002529030731752284020392 0.015114420228259857134634 0.006637691147838142152748 0.003714980551629777551920
340.000000 -0.014785060429685687247159 -0.009714632000599864730672 0.000754370946015466350976 0.012618744936443070103760 0.006365322273266612110310 0.003598591762511715603373
342.000000 -0.014684563774987642939540 -0.009963749844227817037412 -0.000711176950102470760602 0.010468241111282044000785 0.006078396425035046887753 0.003429197518283706464653
344.000000 -0.014434808131644927958748 -0.010025898769273133143143 -0.001851398845970894007154 0.008675609940758435487118 0.005805321866778124541286 0.003236411202972165786218
346.000000 -0.014052557969007057128707 -0.009913706961507000314793 -0.002684043602062736576935 0.007217839481316688093893 0.005564181853385339465712 0.003046461664874594056640
348.000000 -0.013557163958471639408909 -0.009650023645669093472210 -0.003246000595385881842825 0.006051078035904160386249 0.005357686319033268945722 0.002874197822438155983105
350.000000 -0.012967518196707357794328 -0.009259931386921762749842 -0.003580074988605671214292 0.005125092235261708914495 0.005177295444217262961051 0.002723042592962006489682
352.000000 -0.012300157465422147801126 -0.008766549521401966957312 -0.003728845392844264659826 0.004390009099665112372868 0.005010072748782627011233 0.002589403908565274334969
354.000000 -0.011564734976008291672533 -0.008187526545485135018310 -0.003731122337562499131219 0.003799025787309277812920 0.004841872297980810702089 0.002465818288268078507797
356.000000 -0.010759456802254062368629 -0.007531807602188854075531 -0.003616764417814633762044 0.003312958846547215969319 0.004656526020257337715458 0.002341157530545335489075
358.000000 -0.009874944201374042523911 -0.006802059628639105237635 -0.003403260051371102216239 0.002906329200183255852957 0.004436357165708021237094 0.002201155577191335737525
360.000000 -0.008904436649599988332082 -0.006001779452675851285470 -0.003097534279884650489784 0.002569709372684191115571 0.004166078507802469486909 0.002031428367849747243512
362.000000 -0.007849870323639792160653 -0.005139674833987644894662 -0.002701757574894587607406 0.002304692401458326329877 0.003836428010445043067927 0.001821114317756735616685
364.000000 -0.006725163227499802130749 -0.004233031600231667267165 -0.002223149345823351944601 0.002112824259062446533713 0.003445893835784796192107 0.001565842458180959984385
366.000000 -0.005561988690415184573290 -0.003313577724825895326477 -0.001685116121471454163697 0.001984710326743653607817 0.003002108746635181492357 0.001270550483093020512765
368.000000 -0.004411665255899335086331 -0.002428804879532133441378 -0.001130490067713038138467 0.001896777370342978387766 0.002522997250923530131173 0.000951295542055757923500
370.000000 -0.003336350970695326281779 -0.001633021932901972811392 -0.000612621259883846256203 0.001817065695648560977316 0.002035631865916986537463 0.000633999074013619342768
372.000000 -0.002394539752310098114363 -0.000973828135814144043962 -0.000181338733015609166518 0.001714600284535035224984 0.001571702930307916764793 0.000349251175726309663963
374.000000 -0.001627363038773280970103 -0.000479914495256936169364 0.000129901821690980287310 0.001568802953101617594575 0.001160299100469940362587 0.000123613593541661875201
376.000000 -0.001048940980454348727291 -0.000152879168381878560636 0.000312957407708811257037 0.001376849348743759216332 0.000821002508306872542769 -0.000029095198388219645165
378.000000 -0.000645878690853718970613 0.000031355064064285005361 0.000384810647137420280915 0.001153869060177898113115 0.000560515696886436506560 -0.000111310539739182889169
380.000000 -0.000385834666669057136691 0.000111651812642657463181 0.000378080124373192285724 0.000924910920288945993979 0.000373356445101857262105 -0.000138527321570788332101
382.000000 -0.000228889651943154108157 0.000128774977673004847704 0.000328802441613191165793 0.000714360743260805371516 0.000245940556958755855363 -0.000131762122258691238320
384.000000 -0.000138074050370792355408 0.000115504080044832047329 0.000266141966658353147385 0.000537946956877009244309 0.000162065105735026122966 -0.000109872083707864988248
386.000000 -0.000086287277461381814490 0.000092147913149659372916 0.000207096866779281254655 0.000400109279772409016495 0.000107536361960632617738 -0.000085092601791773698713
388.000000 -0.000057094768561240127783 0.000068204341229292000785 0.000157932228644581571734 0.000297043212840717146123 0.000072270124011059868555 -0.000062884866274352059284
390.000000 -0.000041301685346295099132 0.000047029594745485749877 0.000119100391922034303947 0.000221751048157541551503 0.000049768212872527610804 -0.000044617426504880488560
392.000000 -0.000033500769636626349414 0.000029536847144085095227 0.000089235038406784366965 0.000167509641153205598735 0.000035794789500527267345 -0.000030134645207430502432
394.000000 -0.000030155114287890764593 0.000015869600819164931047 0.000066833966088672360113 0.000128952376929968080908 0.000027377332634553994302 -0.000019021615951578438027
396.000000 -0.000028895874216959033823 0.000005850886171469109806 0.000050573954423184946407 0.000101978148424843249029 0.000022378255376247260371 -0.000010861364172424847952
398.000000 -0.000028362919669329288337 -0.000001039416657445409439 0.000039127844466007382046 0.000083326494397100429228 0.000019345610764898853141 -0.000005175070520190065310
400.000000 -0.000027916477645062684238 -0.000005482191291422691955 0.000031273236266116226378 0.000070494204175676358857 0.000017401166076110832266 -0.000001411438661173862729
402.000000 -0.000027330808637856579866 -0.000008165887649702084026 0.000025935713516059849689 0.000061573881987882171369 0.000016047211383378039872 0.000000963032583605594531
404.000000 -0.000026567357962841932670 -0.000009650889349979561004 0.000022289525056250488019 0.000055214344342786262753 0.000015011592476830777331 0.000002387299237076895432
406.000000 -0.000025681379869652823551 -0.000010368782947050393184 0.000019745221996848670289 0.000050508902984397844595 0.000014164938390672980625 0.000003198518204666233685
408.000000 -0.000024728807619793271016 -0.000010616578942611292009 0.000017895145267938297333 0.000046853576042156446055 0.000013426835686361907523 0.000003620346450047685020
410.000000 -0.000023744704171574459279 -0.000010579021744082288354 0.000016480417401659129404 0.000043869448852352133008 0.000012761643047526687533 0.000003803115063507232302
412.000000 -0.000022782939693342239325 -0.000010400066867909581192 0.000015321577408284432157 0.000041315478085764702459 0.000012161630990064757922 0.000003853747066193097571
414.000000 -0.000021847860472975403587 -0.000010139387704377205939 0.000014336404886540076478 0.000039055113796713091954 0.000011604053493366741717 0.000003824181893791559933
416.000000 -0.000020937041414180678183 -0.000009832093802801147080 0.000013469594272544525444 0.000037008192737154383843 0.000011075664275335534955 0.000003743078385986676541
418.000000 -0.000020063348783239520875 -0.000009509279986894774884 0.000012680922388118627287 0.000035113998606791341185 0.000010575206163592500819 0.000003637393620921324769
420.000000 -0.000019221168401246849884 -0.000009181053906517168189 0.000011950354877744951578 0.000033344859639029052895 0.000010094419187599135740 0.000003509939182213391415
422.000000 -0.000018409003641128291850 -0.000008845389187513709282 0.000011282639804254353992 0.000031696593654488119636 0.000009640323111558045136 0.000003376950083907922656
424.000000 -0.000017614258029272872688 -0.000008503726299011624894 0.000010665666345399733064 0.000030141555580201763014 0.000009200780532060029399 0.000003234395219468398657
426.000000 -0.000016850552127898474694 -0.000008161343182546962471 0.000010104099414143518035 0.000028689849773156171885 0.000008787387666196521673 0.000003095663414063385928
428.000000 -0.000016111475154352643643 -0.000007823363401763036963 0.000009588419487455385697 0.000027324837522052667710 0.000008388522705230251416 0.000002956536744544506525
430.000000 -0.000015404612966382048801 -0.000007498431170184352757 0.000009091372572533447724 0.000026013209596711063727 0.000008020775621722902714 0.000002833275261149283613
432.000000 -0.000014715263561443303814 -0.000007172379949864780127 0.000008633486038515919271 0.000024776606789025795583 0.000007660604183166312808 0.000002706913630777673624
434.000000 -0.000014064708962783809029 -0.000006869449980072425837 0.000008194085762392420042 0.000023597841396253706973 0.000007319466434991080188 0.000002589644157597119832
436.000000 -0.000013436909654411596730 -0.000006572918822748213087 0.000007777632522370213431 0.000022467457538312443724 0.000006994821551946229259 0.000002479261009734736748
438.000000 -0.000012831992703976146628 -0.000006278354139077085583 0.000007391588114975802671 0.000021398248634837684648 0.000006687793980828227464 0.000002375782747509545343
440.000000 -0.000012246041148392916475 -0.000005989829120636044226 0.000007026904477288311008 0.000020377027961276643494 0.000006383624580416769830 0.000002268892202064869466
442.000000 -0.000011676950437017862084 -0.000005708539790184078241 0.000006679500419201641375 0.000019397139531574273622 0.000006094449037367078188 0.000002167809435370129095
444.000000 -0.000011123035181136654886 -0.000005433145900771085193 0.000006349132700604482889 0.000018459071668825947904 0.000005823256259447923353 0.000002075944859170790313
446.000000 -0.000010596701502405496122 -0.000005179397948894570645 0.000006019291524890079451 0.000017545473122157630814 0.000005549834612102659950 0.000001980819761607354551
448.000000 -0.000010072992026416934639 -0.000004914035426968739994 0.000005743415321162431196 0.000016711194778502100474 0.000005283299827328084867 0.000001881907379037229126
450.000000 -0.000009566291488799671773 -0.000004655113381814658350 0.000005483744951764722323 0.000015914947271359609459 0.000005016744929485988966 0.000001777088787400155285
452.000000 -0.000009070871106250683481 -0.000004400587680496047106 0.000005238818644641271711 0.000015148217322907223131 0.000004763049519217188274 0.000001679463788149536369
454.000000 -0.000008605584266033118696 -0.000004159699674848032069 0.000005005142692237112489 0.000014418761536555685100 0.000004521232816632731538 0.000001587534958680871779
456.000000 -0.000008170124607924999718 -0.000003938769927439555206 0.000004778257674907480652 0.000013724872326790628460 0.000004297131823273893862 0.000001505291772017659602
458.000000 -0.000007772188532360692256 -0.000003754980560289856625 0.000004534247897023996584 0.000013045981905584841536 0.000004084260657656120952 0.000001430870955514774874
460.000000 -0.000007392464056373645720 -0.000003574911027464384272 0.000004305877147464083358 0.000012398723454989431185 0.000003877328094977452913 0.000001354715968661184425
462.000000 -0.000007041844538388087264 -0.000003416486745155335162 0.000004077225092045907146 0.000011778974965901074426 0.000003696589455159560120 0.000001298442236749147315
464.000000 -0.000006701713728501149973 -0.000003250828087313807703 0.000003876881622393866646 0.000011198297714860953054 0.000003508852309627775175 0.000001232955099469094635
466.000000 -0.000006382335073131259966 -0.000003102863686887005447 0.000003681134511186716701 0.000010653876002726801441 0.000003339562110382436810 0.000001173664506859294467
468.000000 -0.000006085937824770181252 -0.000002973879010309420190 0.000003476637801368436143 0.000010119386085143650299 0.000003180656209695866114 0.000001119536252003875217
470.000000 -0.000005793820502402014917 -0.000002830616163229916005 0.000003304073882098300469 0.000009621072597336787608 0.000003029014856782914911 0.000001069665985230533850
472.000000 -0.000005513773637759827965 -0.000002690860991085077674 0.000003143429821703148219 0.000009148988654201091250 0.000002883807973631042344 0.000001020975661203749286
474.000000 -0.000005249340293321391641 -0.000002561169299640456278 0.000002993952852963017713 0.000008711794591352432340 0.000002754215640702519189 0.000000976506208915607421
476.000000 -0.000004997745746601562113 -0.000002436452971577927258 0.000002860536488818725724 0.000008306892044621715806 0.000002619632715443744958 0.000000926588269580124668
478.000000 -0.000004753474719886635741 -0.000002308364915245549022 0.000002734642855951867848 0.000007919292687430462966 0.000002493372975692739581 0.000000876881416739035031
480.000000 -0.000004521232172801495858 -0.000002194856273800970483 0.000002599709052887136654 0.000007532944485824863366 0.000002377532869176341473 0.000000839331127157837388
482.000000 -0.000004302589719126534628 -0.000002091717665427356755 0.000002473211099748266383 0.000007167287696059329806 0.000002258744427612976972 0.000000799775461786663299
484.000000 -0.000004099297771870421579 -0.000001996832376434482808 0.000002348963800824702887 0.000006821129600179624791 0.000002152205466000976249 0.000000760355543848827538
486.000000 -0.000003888105054983917711 -0.000001882318677255632692 0.000002257329827752340870 0.000006506778966016583466 0.000002047456140512626476 0.000000721149571444370002
488.000000 -0.000003677091604156521050 -0.000001767167395071538697 0.000002163823646665264283 0.000006195839358274011644 0.000001932829821038069065 0.000000673715261235327447
490.000000 -0.000003498429384120359262 -0.000001678845499757871618 0.000002072913318403398928 0.000005912241537402249300 0.000001839587927264547945 0.000000642691029105717302
492.000000 -0.000003330884539276083275 -0.000001604177635423528444 0.000001965363893737891115 0.000005621697307163087273 0.000001749080523740852160 0.000000609028328285455574
494.000000 -0.000003158654362154333822 -0.000001510582041730708811 0.000001898432935528193274 0.000005375343108721761123 0.000001656834370879822774 0.000000572124763318198975
496.000000 -0.000003009769205897099330 -0.000001449018166198644743 0.000001787833851547848558 0.000005096553500203558035 0.000001580814152816691227 0.000000549233562170024347
498.000000 -0.000002871798678965023627 -0.000001389937736443001524 0.000001699551160633533920 0.000004855767537230614496 0.000001509848542371279782 0.000000526152619977955767
500.000000 -0.000002719283685223606489 -0.000001309253969298605900 0.000001624795496263317196 0.000004620771341053201283 0.000001432357445413830379 0.000000497650410977020864
502.000000 -0.000002584373877781918330 -0.000001239424916067529817 0.000001554860324110397826 0.000004410548930160121197 0.000001364023729566688741 0.000000474821826484922887
504.000000 -0.000002470088468276730706 -0.000001192567082035543243 0.000001458870498893885774 0.000004181056833540069145 0.000001305882069063296369 0.000000461739613705467407
506.000000 -0.000002354025007704870759 -0.000001133926442642631033 0.000001395690163973268420 0.000003990856820531626513 0.000001235674726791714381 0.000000431583382591767753
508.000000 -0.000002242867845196393361 -0.000001080293130503819345 0.000001336805570426251690 0.000003815088640697767519 0.000001185420001347935022 0.000000414367170130204715
510.000000 -0.000002144556968764860104 -0.000001044779081989960404 0.000001264948929112428894 0.000003634324118025500467 0.000001128016124074277465 0.000000393881139149457885
510.580000 -0.000002113967342594861832 -0.000001029392848149569438 0.000001248202075781686026 0.000003585844268731406707 0.000001115864221124331413 0.000000391348594518090881
