0.000000 -0.000000000000000000000000 -0.000000000000000000000000 -0.000000000000000000000000 -0.000000000000000000000000 -0.000000000000000000000000 -0.000000000000000000000000
2.000000 -0.001040605263812461028089 -0.002389758058763953845610 -0.003620316861478900961197 -0.003343487182674498379292 -0.000840389357108155092557 -0.000096648011858351933617
4.000000 -0.001415679371381509512109 -0.003511989505105393358231 -0.005867202623721234563958 -0.005399264270651909711218 -0.000862706237973323315088 0.000184348308134295725373
6.000000 -0.001239233035711767051679 -0.003751796883166609239413 -0.006934341568382496566458 -0.006438827237319887965283 -0.000874273266274699944502 0.000321042267040205601958
8.000000 -0.000939141478413603111863 -0.003843906468007258613734 -0.007845515924197498866532 -0.007415018172812953833883 -0.000865526562263548146156 0.000508003874287963675706
10.000000 -0.000867333865858983875212 -0.004478591004004669508254 -0.009593816914853375149574 -0.009165247407222168810059 -0.000841254145293539507856 0.000826951365192385803339
12.000000 -0.000932846783328858029059 -0.005809673812220590705113 -0.012811983891028718568483 -0.012361404297207397029457 -0.001135688294513111963602 0.001168084069528956166206
14.000000 -0.001133120610464015539862 -0.007886159403587866476015 -0.017665044311384877490090 -0.017112394483614467438626 -0.001447920266404324274659 0.001719627172063614272551
16.000000 -0.001951725719074030212033 -0.012001619609315341066780 -0.026026074368919630691588 -0.024948142492177891732519 -0.001962020075505685554745 0.002481672381659563633022
18.000000 -0.003535731752653392592073 -0.017511263217560770616421 -0.036077224607264306299736 -0.034046837405422754330164 -0.001861609900378163266060 0.003654306976489015909570
20.000000 -0.005486139595162127166605 -0.023796870765673567432730 -0.047135489805319716327681 -0.043891629870234337429391 -0.001698444519826952225222 0.004925054728696249065067
22.000000 -0.007445521234502735022365 -0.029863776505117824167090 -0.057518271817681501656416 -0.053033550500628967583339 -0.001723822385990066803282 0.005955946345793789592493
24.000000 -0.009100409814053531457057 -0.034758923831631018119825 -0.065568184584649941148982 -0.060045021188674656265061 -0.001662759780111028925370 0.006825998485725029429894
26.000000 -0.008535520061624642454423 -0.034080228611616074363422 -0.066050227937283670365254 -0.060770262084818463255154 -0.002374962630047003277894 0.006738290327727501465016
28.000000 -0.008619448938961424278027 -0.034841196533226766185454 -0.068343798195709848375401 -0.062937234678619183303461 -0.002616157470177181074145 0.007027038646421894518834
30.000000 -0.007793644585153546890111 -0.034501759805488627086412 -0.070803377194103150893412 -0.065306511994632873707722 -0.003449186909204659395867 0.006700745379404306721616
32.000000 -0.005626589788581575456161 -0.031075212049429139227197 -0.069270642858604097868991 -0.064305924551842877368024 -0.004874161614766838249158 0.005580617621606913901500
34.000000 -0.003439923900274145275591 -0.027448355278531295919908 -0.067025765168974238417121 -0.062659074127921959851406 -0.005768171359672641385075 0.004663139491309438618150
36.000000 -0.001231654711265050541544 -0.024411464995140002426366 -0.065146404603099575258973 -0.061361336080443459883860 -0.006818063315914162092479 0.003438846688255399464129
38.000000 0.001003236713047196172754 -0.021523169898746266626155 -0.062960375903229115479576 -0.059753518359189038144930 -0.008157039326475651677684 0.001901170989166435162931
40.000000 0.003200011912336276406060 -0.019139369242168000756488 -0.061340999220960153170967 -0.058650368840959185567918 -0.009559819805671086051513 0.000191223416667429368509
42.000000 0.005761984627007858336678 -0.016212262242068297551922 -0.058860737482231605122163 -0.056891522185771689623657 -0.011568050749280519434725 -0.002045381524915572575563
44.000000 0.008212652920363361017109 -0.013373159130819088982745 -0.056131906601806370871177 -0.054977661009406868231064 -0.013687878393309685712276 -0.004238050988186694949256
46.000000 0.010670855554520375721439 -0.009456630519159301209720 -0.050982760137137241029937 -0.050641689771460510205436 -0.014248239117910465462158 -0.005461084357603952256499
48.000000 0.013659464915237647456014 -0.004685672317894073145295 -0.044080255802075203608315 -0.044762587811322814002057 -0.014755031003539835141036 -0.006765958075836272893333
50.000000 0.016990290254410310433197 0.000888000329050481532721 -0.036102136762588318830147 -0.038077023608087443018455 -0.015751229246374509607165 -0.008440213239731864797166
52.000000 0.020119178444697405350183 0.005780106893262368719655 -0.029113638704213060104387 -0.032304977215024566206125 -0.017131126265476727399406 -0.010253795427880326232573
54.000000 0.022524675539390796863426 0.010389714400093539442560 -0.021367479905042695287332 -0.025543210486296673289441 -0.017981263896892120401905 -0.011871568563809303809009
56.000000 0.025202387142136309372553 0.015252186630145287554727 -0.014008999314780478870346 -0.019306196255858061594513 -0.018353197073822900831086 -0.012969304070829952221788
58.000000 0.028084379853510241242809 0.020133702636465383717379 -0.007074729455983722221923 -0.013437155351175587847390 -0.018575938431538267098242 -0.013828165804090514559577
60.000000 0.030328137662277890318485 0.024824971425950338732580 -0.000204474967765011609059 -0.007540399781371653724349 -0.017668808040017781879616 -0.013420898702300980073754
62.000000 0.031167355081782897180398 0.028392202251090067205430 0.005930051525184801448909 -0.002082161272769640549679 -0.015820896986601384881510 -0.011847991284389652877351
64.000000 0.031485382206733539267596 0.030556090671024240673637 0.009808329857617670635705 0.001448860434084026267698 -0.013883356806399670471674 -0.010115738358631934032394
66.000000 0.031044738482304701926440 0.030632781212721400809773 0.010842523357750821766388 0.002414825564556043625136 -0.013125189255335827781535 -0.008839105407946096920613
68.000000 0.031253175509389885533551 0.031503722180047537271275 0.012599551885389763741796 0.003902320317292097464484 -0.012901997390083200234479 -0.008337305173333352595333
70.000000 0.030927850828126803028884 0.031473962705303594467043 0.013428563433303404572872 0.004631085185581037579061 -0.013102224785374694954188 -0.008257156165363016553371
72.000000 0.029160250423915099610150 0.029647278119339419422129 0.012557928934081693389535 0.004076189302258316493610 -0.012810564353681301238974 -0.007615740000655821934084
74.000000 0.028224894560507484547740 0.028503586294371389270319 0.012161720388068720383190 0.003867118892957741287802 -0.012535628977794560645620 -0.007296453026288812759859
76.000000 0.028077456719942304325111 0.027719042562084413028334 0.011878661203470437107699 0.003698638618103157384848 -0.012680468816059964690113 -0.007324041792650837212619
78.000000 0.027205199009154606981653 0.025987754901918697775232 0.010866020836933450166573 0.003020734336187731045031 -0.013238550872775244407475 -0.007668892800503728478245
80.000000 0.025679878292337608713947 0.023930667895908936532168 0.010355854330860591802632 0.002950187840915985664630 -0.013609083945766339493466 -0.008019782213174045729098
82.000000 0.023881627410879281009359 0.022113070949759665306811 0.010417335266090380421766 0.003485649767439817810211 -0.012965312257825895719821 -0.007651980232764212484786
84.000000 0.021643703498185846989532 0.019910169779126293126970 0.009915021459871053988167 0.003582027574527882080729 -0.011952492451661132430440 -0.006978103887759130354029
86.000000 0.018445894423133962769512 0.016702880527262584098303 0.008428219435429665229442 0.002919474279247490609845 -0.010777672180961579348479 -0.006061611481526199725345
88.000000 0.014313037774851992273151 0.012441373044140677586733 0.006056471939290973896530 0.001659060177620515913466 -0.009311556864167055969084 -0.004910072210474039806904
90.000000 0.009352382566546749848024 0.007259884453842417074976 0.002779903756658730264867 -0.000316440182839812381502 -0.007602040230969135323202 -0.003460243646913083864769
92.000000 0.005906731143765824899872 0.003912838773944113737735 0.000755319393741466470205 -0.001412242147771884106730 -0.005840133085343259325417 -0.002066945291052412793376
94.000000 0.002818541379728348519884 0.001118813209510953476933 -0.000893337271815403425809 -0.002248083295509780386856 -0.003805946853737317975286 -0.000460864302542595750435
96.000000 0.000572763234275747135614 -0.000779940758391680418610 -0.001870550406731171866684 -0.002619152205842943843817 -0.002518541604228234295770 0.000326943751999963767938
98.000000 -0.000556477790246391861712 -0.001526576558250043388898 -0.001907127327129285680046 -0.002260852043464322246036 -0.001606147105450098132653 0.000588934643181689707406
100.000000 -0.000884922700611087166556 -0.001390488348967395615743 -0.001248928011692215182121 -0.001380233142287361604653 -0.000888342487994333825443 0.000532857759251480016770
102.000000 -0.001103113215691496964976 -0.001192436771666364114450 -0.000650079530251791389873 -0.000600708639900372634926 -0.000078832711592073954942 0.000653555480889188387256
104.000000 -0.000965211348142854495824 -0.000800367037004603445148 -0.000031375963341054879962 0.000059734327349753079187 0.000196203607546400631044 0.000512682010497199228474
106.000000 -0.000553098276928614285969 -0.000195470890910423746164 0.000685294388148482242970 0.000701240101751935763011 0.000320117795673315345874 0.000381403699087967576042
108.000000 -0.000226519551124705799264 0.000285094985150650948296 0.001232163436861103593747 0.001180921127013124117405 0.000349016049657389535680 0.000280627723302111328936
110.000000 -0.000056434487773620514576 0.000503068012511137920353 0.001519333655664597366661 0.001443092897967954320315 0.000210365877080301327167 0.000036974230252864370900
112.000000 -0.000112162826769627899147 0.000462419287692868597600 0.001542603042906751749028 0.001484663436094340108196 0.000210250762854156134172 0.000003519045799827492648
114.000000 -0.000216767271202527049469 0.000367269259962999569235 0.001506236508726962889174 0.001476157841252745709856 0.000264835716164741816203 0.000041618492684952074212
116.000000 -0.000305465307442028151646 0.000290237362774623973080 0.001482898454735450321715 0.001477238094382439005658 0.000314184886696375895773 0.000071697000480929018820
118.000000 -0.000380211257132153062754 0.000228308330399708443725 0.001469345346862079362826 0.001484801546934350459719 0.000358756066562607319435 0.000096077294008101063157
120.000000 -0.000442291021542241390586 0.000179493784406129999612 0.001463678053669108377818 0.001497062005042972291854 0.000398263179930022099412 0.000115596747597603474972
122.000000 -0.000493239359872813974348 0.000141756724033244237192 0.001464192052733784363966 0.001512560345555974926357 0.000432696677022261486957 0.000130988640717832237814
124.000000 -0.000534721598702525427807 0.000113092055418459176523 0.001469360117372940860783 0.001530100533256396671752 0.000462331996185091464568 0.000142982952109551323056
126.000000 -0.000568355061700632005484 0.000091684378718720214497 0.001477916726279513218167 0.001548777305190696378795 0.000487622218959587279061 0.000152258547829311758747
128.000000 -0.000595603802159278342132 0.000075983493012917065462 0.001488878571431542178344 0.001567958830799071404116 0.000509102009545147325166 0.000159406715005757656329
130.000000 -0.000617735736072385992722 0.000064715425980695751420 0.001501522341268576908949 0.001587244685126377530607 0.000527320974796576967189 0.000164917383976645286203
132.000000 -0.000635814604184894776803 0.000056864058133473359684 0.001515342192170383590205 0.001606413521247879172549 0.000542805379891888499858 0.000169184667469275391936
134.000000 -0.000650711669661167878623 0.000051638761496519374589 0.001530005682025243002667 0.001625375792719594260707 0.000556034214653988874931 0.000172517257804274661221
136.000000 -0.000663135122817090833826 0.000048425601439574167189 0.001545302247281192184469 0.001644126128646850428308 0.000567430159900819534348 0.000175152992393630386287
138.000000 -0.000673651379705454190529 0.000046758947767144478237 0.001561114446032452239901 0.001662716530722329428757 0.000577357577661837657011 0.000177272984551416027408
140.000000 -0.000682708769145111719553 0.000046290388067841525387 0.001577391323367604864664 0.001681233905961256394623 0.000586126234229884259495 0.000179014564171413434381
142.000000 -0.000690666097016025899887 0.000046751790551001696085 0.001594117310436418471706 0.001699776052591260404323 0.000593995245386494158564 0.000180480704054569236110
144.000000 -0.000697801281030518039290 0.000047950809210628999267 0.001611311787061582177435 0.001718452084858497269301 0.000601178387032330510502 0.000181747388959061227957
146.000000 -0.000704336147942459457789 0.000049741719169506746470 0.001629008776643486216054 0.001737368484238373559855 0.000607852872791896786664 0.000182872292853154019528
148.000000 -0.000710441165628945803766 0.000052020591494141582719 0.001647254146458285075511 0.001756628184939419560009 0.000614162822588395422400 0.000183897401370139006735
150.000000 -0.000716253696204925661105 0.000054709629985314147023 0.001666098526845667974691 0.001776327732095582794675 0.000620226066517855331890 0.000184854030336942839856
152.000000 -0.000721879687758518570791 0.000057756537736892409063 0.001685598082955322906881 0.001796558801359936057007 0.000626139207890461521946 0.000185765813151592969850
154.000000 -0.000727403330320908485425 0.000061123188546706883821 0.001705809018646948539699 0.001817405795725678509592 0.000631981243024461658217 0.000186650324172208076194
156.000000 -0.000732890923913390602423 0.000064785459582114928953 0.001726789705704241846551 0.001838948719574024252485 0.000637814574055727326850 0.000187519329596600044761
158.000000 -0.000738397113781975823407 0.000068726686428514824042 0.001748597733847290398856 0.001861262963264351125506 0.000643693517014357736127 0.000188383083748363308173
160.000000 -0.000743965433005182676975 0.000072939462322447659983 0.001771292932008617466641 0.001884421416177614562112 0.000649662483753141997353 0.000189249077077650851818
162.000000 -0.000749631759025975921013 0.000077421208594555951388 0.001794935415833062968688 0.001908494786562958157872 0.000655758642710427296953 0.000190122636324272957032
164.000000 -0.000755426255369978975028 0.000082174413275573474818 0.001819588069447515901733 0.001933553858196154946747 0.000662014395088800808135 0.000191008070670277408081
166.000000 -0.000761373961828839640291 0.000087205221766541887013 0.001845314958612196808846 0.001959668802985539085709 0.000668457721603177507444 0.000191908095481500493018
168.000000 -0.000767496984044543223424 0.000092523598224086094056 0.001872183584587130576390 0.001986911824692232098055 0.000675114549623523439031 0.000192825898622963866824
170.000000 -0.000773816719428183563342 0.000098139041627202637801 0.001900262026609469186850 0.002015354764957744300446 0.000682007733854323003504 0.000193763352591656482079
172.000000 -0.000780349437593907458745 0.000104068547351468301799 0.001929625523466621311516 0.002045074976283080877421 0.000689158192961597700077 0.000194721049135024954976
174.000000 -0.000787113351211420932130 0.000110327341543627340079 0.001960350752481404036642 0.002076151296699643624549 0.000696588340438295764573 0.000195701698804243395509
176.000000 -0.000794124696898731107474 0.000116934324813043556603 0.001992519788873422636327 0.002108667006156388166321 0.000704317754571936170162 0.000196705364982788547760
178.000000 -0.000801399299886771613460 0.000123909936947814454779 0.002026219496246204395534 0.002142709730812464383881 0.000712365781584658498693 0.000197732008115916166107
180.000000 -0.000808953959470063896885 0.000131277020617968551673 0.002061543723883684647857 0.002178373744141017843978 0.000720755096135683621938 0.000198783874947683570017
182.000000 -0.000816803933489316721928 0.000139061136734191435850 0.002098591618564324672719 0.002215758036319010262916 0.000729505310265834484330 0.000199860128339684014380
184.000000 -0.000824965068442580257320 0.000147290686962298468868 0.002137470351690771378644 0.002254969329307953632840 0.000738638708618132933462 0.000200961166275473007139
186.000000 -0.000833455536635422170044 0.000155994103674598756475 0.002178293239031166370762 0.002296120587974202331000 0.000748178663406226605176 0.000202087682382818563777
188.000000 -0.000842292661854398888241 0.000165203393736751804124 0.002221181334831308969852 0.002339332205645144532880 0.000758147696936167661899 0.000203238362400358726521
190.000000 -0.000851495133018550132316 0.000174954332653836150532 0.002266266913152151403488 0.002384735185947760901376 0.000768572734346972580473 0.000204414339357376141941
192.000000 -0.000861082232636131055317 0.000185284424155913757682 0.002313689799954091966955 0.002432468038247173787447 0.000779479028007597782648 0.000205614240478341301233
194.000000 -0.000871074602773136527807 0.000196234504375161718020 0.002363601557539537437874 0.002482680922899615800353 0.000790896587054983534956 0.000206838771148910556888
196.000000 -0.000881493907522890723927 0.000207848625523957778599 0.002416164292101951292790 0.002535534246883492260488 0.000802854740894685644029 0.000208086329125542696464
198.000000 -0.000892363863616364586320 0.000220173917683026188798 0.002471552347479284619108 0.002591200429377231353317 0.000815385661697043797116 0.000209356159309963691653
200.000000 -0.000903708644034315381442 0.000233263154032011178112 0.002529955286245965263153 0.002649866627475548370302 0.000828524556717824371688 0.000210647798076480150366
202.000000 -0.000915555084845737178131 0.000247170332749578332103 0.002591573292825133725814 0.002711730932890560243770 0.000842308343150928950059 0.000211960128878801236678
204.000000 -0.000927930906019941675704 0.000261956498182740920352 0.002656625779918413837732 0.002777009760761245654032 0.000856776281920568118927 0.000213291511064837206822
206.000000 -0.000940866867409571741923 0.000277685080159258742410 0.002725346096920162886068 0.002845933695059970659769 0.000871970892780927326303 0.000214640429918612040804
208.000000 -0.000954394880982483914678 0.000294425950822925453984 0.002797986230966981353874 0.002918751436411599377296 0.000887938096643356520460 0.000216005658308727913151
210.000000 -0.000968550131519481708429 0.000312253036612090766836 0.002874816669846816993145 0.002995729917951044096736 0.000904726577390010597290 0.000217385405428113017562
212.000000 -0.000983370527719221523832 0.000331245367864779088375 0.002956127459453111207266 0.003077155569563491677165 0.000922388007272514518983 0.000218777108469182091479
214.000000 -0.000998896012450764796825 0.000351488943196256401619 0.003042231312450815929743 0.003163336973035127831083 0.000940979788030487968205 0.000220179532451180023315
216.000000 -0.001015170192695692219856 0.000373073572456536354299 0.003133460474511657635477 0.003254601964893342070512 0.000960559764871356290897 0.000221589037636445022102
218.000000 -0.001032241913300176519575 0.000396094504351924962295 0.003230171078382920377137 0.003351302561548637030941 0.000981194513704243325911 0.000223005194400941657382
220.000000 -0.001050162108442213209150 0.000420653904132747130922 0.003332744195433799249545 0.003453815145172752128222 0.001002952952700054143134 0.000224425585342240355982
222.000000 -0.001068988260127090106702 0.000446856617354874610833 0.003441583116718179621157 0.003562538658924332708039 0.001025908909055763462356 0.000225848421397938634893
224.000000 -0.001088781883004698910339 0.000474814218477725058423 0.003557117842274195099184 0.003677898438086609714942 0.001050141808145070056180 0.000227272412630477544998
226.000000 -0.001109610989111773629232 0.000504641545931682031396 0.003679801440159534160063 0.003800343312455264216387 0.001075736679004583125005 0.000228697248091607867890
228.000000 -0.001131548463127634782110 0.000536457629786909204542 0.003810111583991336765831 0.003930346667814632946603 0.001102783243373148865801 0.000230122601301902506010
230.000000 -0.001154678679750272907514 0.000570379388219815109014 0.003948545957256293682802 0.004068403644336867665265 0.001131379476695759753874 0.000231551147068535876760
232.000000 -0.001179090871395924644202 0.000606528529203123546905 0.004095627113813365971495 0.004215034134011415127563 0.001161628104501926045736 0.000232985772476592301484
234.000000 -0.001204886058926845238820 0.000645022380040093773999 0.004251895210821849020733 0.004370777779562047028750 0.001193640294598315946401 0.000234432788867756702672
236.000000 -0.001232177521706780088870 0.000685975501823247037041 0.004417910467565648244270 0.004536196160708667879380 0.001227534324656841518281 0.000235900487987154334904
238.000000 -0.001261088562653135724048 0.000729501745299246493089 0.004594256485938343938236 0.004711876122797106075657 0.001263437242560700541835 0.000237399988696388385915
240.000000 -0.001291756804853931355978 0.000775713112746910038800 0.004781545395609548484983 0.004898435660060602991894 0.001301485640217895202800 0.000238944482169663917825
242.000000 -0.001324333147496921598077 0.000824726045546891688674 0.004980430416944879763730 0.005096536089536399596889 0.001341829179592198212703 0.000240550404096048227971
244.000000 -0.001358980499698094835184 0.000876670077258145160476 0.005191626054522153685400 0.005306901466742162433443 0.001384628754765995523740 0.000242232374327634259002
246.000000 -0.001395874913994776204268 0.000931699647920156029217 0.005415938048832691711909 0.005530347827321649249732 0.001430062903360950236561 0.000244003969364371393978
248.000000 -0.001435197228708057085381 0.000990019916995858338324 0.005654311567355215298325 0.005767827702218466211226 0.001478326902335968390245 0.000245870146780367295446
250.000000 -0.001477132052120748179763 0.001051909764391600540789 0.005907884423977361430802 0.006020480618705370719212 0.001529637503940080344236 0.000247823477779580590100
252.000000 -0.001521857198272470214351 0.001117757769321305917620 0.006178055064737291053600 0.006289695055710713481045 0.001584232522396086979832 0.000249835153094223830911
254.000000 -0.001569536549160676199358 0.001188094554907334057456 0.006466549358514830925238 0.006577170148462327739503 0.001642374087163115748203 0.000251848100690164043193
256.000000 -0.001620311853810165510920 0.001263621810705626473739 0.006775478458096092018725 0.006884967181375546176059 0.001704347290954944102101 0.000253769351118592523166
258.000000 -0.001674298751956958567974 0.001345224789743608082015 0.007107366942948328304708 0.007215533480354554413116 0.001770459279272829089535 0.000255466094569913948834
260.000000 -0.001731587062363351171845 0.001433962446365672068968 0.007465138146047219959434 0.007571685942839904114032 0.001841036740221574027898 0.000256766950375603641380
262.000000 -0.001792255891228477279048 0.001531013020977339562229 0.007852023940913974847655 0.007956525425070342522060 0.001916421133121585769835 0.000257471318598978798214
264.000000 -0.001856399437807733539263 0.001637575114744071504147 0.008271388454322591010648 0.008373271330666027384426 0.001996965579460783894727 0.000257372253163029075535
266.000000 -0.001924171617822202813575 0.001754710932671055441390 0.008726451613901096276971 0.008825006421058387631740 0.002083031130981601811852 0.000256291497442313540023
268.000000 -0.001995847490133790137073 0.001883144925107544396040 0.009219933656625423773479 0.009314351852893261451971 0.002174984254157158892334 0.000254125359859393054433
270.000000 -0.002071899393162805573521 0.002023035774472957404324 0.009753657950437876617000 0.009843108491872013324220 0.002273201879675477727477 0.000250902090682109395366
272.000000 -0.002153068996049047664071 0.002173772920968723189328 0.010328192225503698975508 0.010411937351008518706785 0.002378078772528497818878 0.000246835703510930382695
274.000000 -0.002240425846021430311000 0.002333847790302564714771 0.010942624441137900268006 0.011020168335096801326412 0.002490040533228138515398 0.000242365855678828358592
276.000000 -0.002335383543201372674725 0.002500871174138706055923 0.011594582492245656540897 0.011665833076781144395095 0.002609559160442119669920 0.000238168927649980188051
278.000000 -0.002439657294044519225684 0.002671768731597770358405 0.012280542399273404463589 0.012345957591771958977711 0.002737158398404710216156 0.000235125053056290165112
280.000000 -0.002555166149835435933368 0.002843139112167365843004 0.012996402418490786076499 0.013057094496440657671599 0.002873419796126368708916 0.000234247990119732901445
282.000000 -0.002683883677424814782897 0.003011744023194943154637 0.013738274241304145040221 0.013796048351261828643355 0.003018978041417924498141 0.000236572553956374855271
284.000000 -0.002827656207314287704901 0.003175071201716586806463 0.014503417220061903813999 0.014560728245792227061872 0.003174511244171551553606 0.000243009353104678069157
286.000000 -0.002988015990398163769515 0.003331912385487629472275 0.015291258891902109740002 0.015351080585117454074817 0.003340733883092351658856 0.000254179385537606607540
288.000000 -0.003166007678643427240839 0.003482917597448488989526 0.016104471243670225033551 0.016170076599680956175309 0.003518398682744242923770 0.000270239685563888453607
290.000000 -0.003362041674991449961146 0.003631093196334271924752 0.016950050490095808913837 0.017024704620371953339708 0.003708308717703941419924 0.000290713632398660300551
292.000000 -0.003575769230440927100301 0.003782196314245023054113 0.017840261282075012272408 0.017926826110167340400103 0.003911319118322346619077 0.000314342193877265377311
294.000000 -0.003805979840990766742415 0.003944813491943857317046 0.018792900946915137849746 0.018893356149455850512275 0.004128257467214577550174 0.000338994502534082178292
296.000000 -0.004050551448894019503089 0.004129500416016748318149 0.019829389067693676401705 0.019944310389304116537534 0.004359590952055483921435 0.000361749486697980442412
298.000000 -0.004306710631852245924067 0.004345444098780773881097 0.020967424207445378714354 0.021095609698169270201928 0.004604617348070137901328 0.000379474915877408669040
300.000000 -0.004572423153398531663061 0.004592226160158286406288 0.022203966344124713427899 0.022342827545985790432814 0.004860309820927835415538 0.000390546196033129695141
302.000000 -0.004849930518413685803791 0.004846807671513931985163 0.023490889793541275265554 0.023638724836969552539623 0.005120899651551111611547 0.000397875694345305435523
304.000000 -0.005149835926877526295908 0.005055557224519166732712 0.024723713373400419551773 0.024884157173080772434970 0.005379337688415549052767 0.000411059802353665247436
306.000000 -0.005490723822664776883340 0.005145418509544774990361 0.025766789829505372388940 0.025953084547112478114306 0.005629706053500343858331 0.000444470459059721854228
308.000000 -0.005892864607605730747908 0.005049933042455776247004 0.026500921815601256870121 0.026736828467489339583585 0.005868672777951388329354 0.000512504897780974451836
310.000000 -0.006371690494422182181322 0.004728187247548293510591 0.026851632747647142390734 0.027169126893598950084341 0.006096225811627188455322 0.000626707479400951555405
312.000000 -0.006934462678140677037442 0.004168095288399682740721 0.026785777913888985518609 0.027221936383933151293313 0.006315434239426515050653 0.000795302896744758862704
314.000000 -0.007578170939516674919911 0.003382430285894407178543 0.026298329799490722386013 0.026892274092378369576561 0.006529084874449826020326 0.001021501745296873008007
316.000000 -0.008288236392472780877938 0.002403449419266825027447 0.025406129451266367541562 0.026195467757611529124873 0.006734727570741229699114 0.001300291174391128568022
318.000000 -0.009040733734458754680685 0.001275030723419063715535 0.024144742927569753931927 0.025161918723833356231756 0.006923317999158033232698 0.001617910502891032166820
320.000000 -0.009808691756182217127980 0.000042089444956426653641 0.022559735508222933386691 0.023829859091064890114220 0.007082910263867581851516 0.001955780358426382169179
322.000000 -0.010568083198404430722572 -0.001256982090708735032292 0.020698225876668127631852 0.022238794728683886764431 0.007203115700352706769760 0.002295169976881182832135
324.000000 -0.011300449152142564776535 -0.002591053644181821446341 0.018609740044506346140496 0.020431267673234006221339 0.007277988964616670386487 0.002620182084671483346144
326.000000 -0.011993267908066658489208 -0.003934497833313799382282 0.016349719939784360112078 0.018456764259194867461300 0.007307919632480657651241 0.002919813145366177697948
328.000000 -0.012638297273131114673017 -0.005266035075299468556920 0.013977567409969459191754 0.016369862822631930238115 0.007298255381676100467248 0.003187568574565292477824
330.000000 -0.013227719743895898635300 -0.006566529448698958833230 0.011553163043939673054750 0.014225978277882977279800 0.007253559913013202936627 0.003417146293237304476020
332.000000 -0.013750303932838931278426 -0.007815247246323124216683 0.009136222787949489776427 0.012079297476986022852330 0.007172418977553272553815 0.003598021340881631374015
334.000000 -0.014189514240315273183035 -0.008986369345364642394203 0.006785918429048137454074 0.009981256551299090562512 0.007047236845691268875003 0.003715664184897474534020
336.000000 -0.014523742427822377426549 -0.010046009243655958098618 0.004561908415036870258208 0.007981433529374967056347 0.006869377554247594296066 0.003756548678205253854329
338.000000 -0.014728920434542847398007 -0.010950471630469110762007 0.002529030731752284020392 0.006133494974577664848869 0.006637691147838142152748 0.003714980551629777551920
340.000000 -0.014785060429685687247159 -0.011652871061670160707235 0.000754370946015466350976 0.004495134626021001118812 0.006365322273266612110310 0.003598591762511715603373
342.000000 -0.014684563774987642939540 -0.012119585125785994894621 -0.000711176950102470760602 0.003112763263734489270484 0.006078396425035046887753 0.003429197518283706464653
344.000000 -0.014434808131644927958748 -0.012342775400931208645838 -0.001851398845970894007154 0.002003559184958730865489 0.005805321866778124541286 0.003236411202972165786218
346.000000 -0.014052557969007057128707 -0.012337576311637997797388 -0.002684043602062736576935 0.001153759956962179282144 0.005564181853385339465712 0.003046461664874594056640
348.000000 -0.013557163958471639408909 -0.012130853596236333344360 -0.003246000595385881842825 0.000531026880497542587596 0.005357686319033268945722 0.002874197822438155983105
350.000000 -0.012967518196707357794328 -0.011752562937973705034511 -0.003580074988605671214292 0.000096869992172072090985 0.005177295444217262961051 0.002723042592962006489682
352.000000 -0.012300157465422147801126 -0.011231362781916770857138 -0.003728845392844264659826 -0.000187236843700654663220 0.005010072748782627011233 0.002589403908565274334969
354.000000 -0.011564734976008291672533 -0.010590317325227697337064 -0.003731122337562499131219 -0.000356955912778564971814 0.004841872297980810702089 0.002465818288268078507797
356.000000 -0.010759456802254062368629 -0.009842297061956457177034 -0.003616764417814633762044 -0.000440928693186206505095 0.004656526020257337715458 0.002341157530545335489075
358.000000 -0.009874944201374042523911 -0.008991933645058673707506 -0.003403260051371102216239 -0.000456759169912660380024 0.004436357165708021237094 0.002201155577191335737525
360.000000 -0.008904436649599988332082 -0.008043379323735224198377 -0.003097534279884650489784 -0.000410827207930281068128 0.004166078507802469486909 0.002031428367849747243512
362.000000 -0.007849870323639792160653 -0.007005586257080934076136 -0.002701757574894587607406 -0.000302929460087303012699 0.003836428010445043067927 0.001821114317756735616685
364.000000 -0.006725163227499802130749 -0.005897390672886567396238 -0.002223149345823351944601 -0.000135201107638160993507 0.003445893835784796192107 0.001565842458180959984385
366.000000 -0.005561988690415184573290 -0.004755936163281689055271 -0.001685116121471454163697 0.000078363568433058769492 0.003002108746635181492357 0.001270550483093020512765
368.000000 -0.004411665255899335086331 -0.003638986781826609832879 -0.001130490067713038138467 0.000309075401165094163208 0.002522997250923530131173 0.000951295542055757923500
370.000000 -0.003336350970695326281779 -0.002613896114580769453051 -0.000612621259883846256203 0.000519984346681427733738 0.002035631865916986537463 0.000633999074013619342768
372.000000 -0.002394539752310098114363 -0.001740795002108850046338 -0.000181338733015609166518 0.000676212453289142261144 0.001571702930307916764793 0.000349251175726309663963
374.000000 -0.001627363038773280970103 -0.001058106749699243937998 0.000129901821690980287310 0.000754884275891558125492 0.001160299100469940362587 0.000123613593541661875201
376.000000 -0.001048940980454348727291 -0.000573396235630478016791 0.000312957407708811257037 0.000752478065381177252738 0.000821002508306872542769 -0.000029095198388219645165
378.000000 -0.000645878690853718970613 -0.000264649363890587902785 0.000384810647137420280915 0.000684735069262941311967 0.000560515696886436506560 -0.000111310539739182889169
380.000000 -0.000385834666669057136691 -0.000091388336742485512662 0.000378080124373192285724 0.000578544763976400651384 0.000373356445101857262105 -0.000138527321570788332101
382.000000 -0.000228889651943154108157 -0.000008146449317752413978 0.000328802441613191165793 0.000461551380575481108755 0.000245940556958755855363 -0.000131762122258691238320
384.000000 -0.000138074050370792355408 0.000024139599379628534501 0.000266141966658353147385 0.000354030300879322294694 0.000162065105735026122966 -0.000109872083707864988248
386.000000 -0.000086287277461381814490 0.000031701162024586767804 0.000207096866779281254655 0.000265569138519169175693 0.000107536361960632617738 -0.000085092601791773698713
388.000000 -0.000057094768561240127783 0.000028541793332362737628 0.000157932228644581571734 0.000197231939047421821892 0.000072270124011059868555 -0.000062884866274352059284
390.000000 -0.000041301685346295099132 0.000021139556564506011970 0.000119100391922034303947 0.000146067232270257222823 0.000049768212872527610804 -0.000044617426504880488560
392.000000 -0.000033500769636626349414 0.000012572989127341891078 0.000089235038406784366965 0.000108440129717514221553 0.000035794789500527267345 -0.000030134645207430502432
394.000000 -0.000030155114287890764593 0.000004549904964543220923 0.000066833966088672360113 0.000081258192841065924185 0.000027377332634553994302 -0.000019021615951578438027
396.000000 -0.000028895874216959033823 -0.000001960218619882199829 0.000050573954423184946407 0.000062068313441595733462 0.000022378255376247260371 -0.000010861364172424847952
398.000000 -0.000028362919669329288337 -0.000006687918753985247235 0.000039127844466007382046 0.000048798238831779205645 0.000019345610764898853141 -0.000005175070520190065310
400.000000 -0.000027916477645062684238 -0.000009791944578312756681 0.000031273236266116226378 0.000039761689550271260161 0.000017401166076110832266 -0.000001411438661173862729
402.000000 -0.000027330808637856579866 -0.000011634476634111405054 0.000025935713516059849689 0.000033613450793053003759 0.000016047211383378039872 0.000000963032583605594531
404.000000 -0.000026567357962841932670 -0.000012576969509852948059 0.000022289525056250488019 0.000029371393067657260362 0.000015011592476830777331 0.000002387299237076895432
406.000000 -0.000025681379869652823551 -0.000012933412780008346561 0.000019745221996848670289 0.000026362248612383158252 0.000014164938390672980625 0.000003198518204666233685
408.000000 -0.000024728807619793271016 -0.000012931380823287032334 0.000017895145267938297333 0.000024129597590760403620 0.000013426835686361907523 0.000003620346450047685020
410.000000 -0.000023744704171574459279 -0.000012715002396920552051 0.000016480417401659129404 0.000022387151794177048497 0.000012761643047526687533 0.000003803115063507232302
412.000000 -0.000022782939693342239325 -0.000012404509087963139165 0.000015321577408284432157 0.000020944512796636091467 0.000012161630990064757922 0.000003853747066193097571
414.000000 -0.000021847860472975403587 -0.000012039208183230790648 0.000014336404886540076478 0.000019702018504613238932 0.000011604053493366741717 0.000003824181893791559933
416.000000 -0.000020937041414180678183 -0.000011645159074503208188 0.000013469594272544525444 0.000018598273257162012162 0.000011075664275335534955 0.000003743078385986676541
418.000000 -0.000020063348783239520875 -0.000011248517258153101724 0.000012680922388118627287 0.000017588727758160824395 0.000010575206163592500819 0.000003637393620921324769
420.000000 -0.000019221168401246849884 -0.000010855946138997110220 0.000011950354877744951578 0.000016652366257096004305 0.000010094419187599135740 0.000003509939182213391415
422.000000 -0.000018409003641128291850 -0.000010460786739024648803 0.000011282639804254353992 0.000015788590657713364590 0.000009640323111558045136 0.000003376950083907922656
424.000000 -0.000017614258029272872688 -0.000010061187778946130552 0.000010665666345399733064 0.000014981097974185130143 0.000009200780532060029399 0.000003234395219468398657
426.000000 -0.000016850552127898474694 -0.000009662058311914594272 0.000010104099414143518035 0.000014236090383466408005 0.000008787387666196521673 0.000003095663414063385928
428.000000 -0.000016111475154352643643 -0.000009267705774004913842 0.000009588419487455385697 0.000013542701462460295027 0.000008388522705230251416 0.000002956536744544506525
430.000000 -0.000015404612966382048801 -0.000008889411814605529288 0.000009091372572533447724 0.000012876776017205217274 0.000008020775621722902714 0.000002833275261149283613
432.000000 -0.000014715263561443303814 -0.000008510956962781480079 0.000008633486038515919271 0.000012254451611647878626 0.000007660604183166312808 0.000002706913630777673624
434.000000 -0.000014064708962783809029 -0.000008156964167168170908 0.000008194085762392420042 0.000011658840159428158811 0.000007319466434991080188 0.000002589644157597119832
436.000000 -0.000013436909654411596730 -0.000007810574258594411962 0.000007777632522370213431 0.000011090826869308599226 0.000006994821551946229259 0.000002479261009734736748
438.000000 -0.000012831992703976146628 -0.000007466862970507909504 0.000007391588114975802671 0.000010557602107167349630 0.000006687793980828227464 0.000002375782747509545343
440.000000 -0.000012246041148392916475 -0.000007130337441097504421 0.000007026904477288311008 0.000010050182511615386076 0.000006383624580416769830 0.000002268892202064869466
442.000000 -0.000011676950437017862084 -0.000006801757448003804502 0.000006679500419201641375 0.000009564144532777424428 0.000006094449037367078188 0.000002167809435370129095
444.000000 -0.000011123035181136654886 -0.000006480338182001394469 0.000006349132700604482889 0.000009100238032321395244 0.000005823256259447923353 0.000002075944859170790313
446.000000 -0.000010596701502405496122 -0.000006182957890914760280 0.000006019291524890079451 0.000008643064400076307422 0.000005549834612102659950 0.000001980819761607354551
448.000000 -0.000010072992026416934639 -0.000005868265527866375994 0.000005743415321162431196 0.000008238162782653252189 0.000005283299827328084867 0.000001881907379037229126
450.000000 -0.000009566291488799671773 -0.000005561470925876250836 0.000005483744951764722323 0.000007854187456429152986 0.000005016744929485988966 0.000001777088787400155285
452.000000 -0.000009070871106250683481 -0.000005258570550287699016 0.000005238818644641271711 0.000007486707874106861902 0.000004763049519217188274 0.000001679463788149536369
454.000000 -0.000008605584266033118696 -0.000004973001375164054274 0.000005005142692237112489 0.000007136899445260365872 0.000004521232816632731538 0.000001587534958680871779
456.000000 -0.000008170124607924999718 -0.000004709582914813091747 0.000004778257674907480652 0.000006801522330382625450 0.000004297131823273893862 0.000001505291772017659602
458.000000 -0.000007772188532360692256 -0.000004489223353366953784 0.000004534247897023996584 0.000006461279833830545750 0.000004084260657656120952 0.000001430870955514774874
460.000000 -0.000007392464056373645720 -0.000004273766594027366158 0.000004305877147464083358 0.000006139310666798127139 0.000003877328094977452913 0.000001354715968661184425
462.000000 -0.000007041844538388087264 -0.000004081798321754994962 0.000004077225092045907146 0.000005823600097297028471 0.000003696589455159560120 0.000001298442236749147315
464.000000 -0.000006701713728501149973 -0.000003882889234925897046 0.000003876881622393866646 0.000005536033561398688352 0.000003508852309627775175 0.000001232955099469094635
466.000000 -0.000006382335073131259966 -0.000003705380186207030142 0.000003681134511186716701 0.000005262788175089174592 0.000003339562110382436810 0.000001173664506859294467
468.000000 -0.000006085937824770181252 -0.000003550561730584195474 0.000003476637801368436143 0.000004987139433025859356 0.000003180656209695866114 0.000001119536252003875217
470.000000 -0.000005793820502402014917 -0.000003380119357577210031 0.000003304073882098300469 0.000004740986439639062268 0.000003029014856782914911 0.000001069665985230533850
472.000000 -0.000005513773637759827965 -0.000003214166096271525637 0.000003143429821703148219 0.000004509392535072974534 0.000002883807973631042344 0.000001020975661203749286
474.000000 -0.000005249340293321391641 -0.000003059148861886026709 0.000002993952852963017713 0.000004294812101635562390 0.000002754215640702519189 0.000000976506208915607421
476.000000 -0.000004997745746601562113 -0.000002908449522486799404 0.000002860536488818725724 0.000004097367141589413025 0.000002619632715443744958 0.000000926588269580124668
478.000000 -0.000004753474719886635741 -0.000002757951799976011353 0.000002734642855951867848 0.000003912604365964328463 0.000002493372975692739581 0.000000876881416739035031
480.000000 -0.000004521232172801495858 -0.000002623869987794803687 0.000002599709052887136654 0.000003721302339602337376 0.000002377532869176341473 0.000000839331127157837388
482.000000 -0.000004302589719126534628 -0.000002498687283848585169 0.000002473211099748266383 0.000003538189652502644182 0.000002258744427612976972 0.000000799775461786663299
484.000000 -0.000004099297771870421579 -0.000002384685601150341550 0.000002348963800824702887 0.000003364544583255153196 0.000002152205466000976249 0.000000760355543848827538
486.000000 -0.000003888105054983917711 -0.000002247489678925640265 0.000002257329827752340870 0.000003218010403796290255 0.000002047456140512626476 0.000000721149571444370002
488.000000 -0.000003677091604156521050 -0.000002112375730237431106 0.000002163823646665264283 0.000003072663194954166871 0.000001932829821038069065 0.000000673715261235327447
490.000000 -0.000003498429384120359262 -0.000002004448812428719225 0.000002072913318403398928 0.000002935550331800160931 0.000001839587927264547945 0.000000642691029105717302
492.000000 -0.000003330884539276083275 -0.000001914179771049631282 0.000001965363893737891115 0.000002787706934085907314 0.000001749080523740852160 0.000000609028328285455574
494.000000 -0.000003158654362154333822 -0.000001800549647738189587 0.000001898432935528193274 0.000002675587435899744342 0.000001656834370879822774 0.000000572124763318198975
496.000000 -0.000003009769205897099330 -0.000001726507433582991256 0.000001787833851547848558 0.000002529245582249816520 0.000001580814152816691227 0.000000549233562170024347
498.000000 -0.000002871798678965023627 -0.000001653161099083097033 0.000001699551160633533920 0.000002406390739120773687 0.000001509848542371279782 0.000000526152619977955767
500.000000 -0.000002719283685223606489 -0.000001558861520877276238 0.000001624795496263317196 0.000002295118252448009688 0.000001432357445413830379 0.000000497650410977020864
502.000000 -0.000002584373877781918330 -0.000001476231957111881336 0.000001554860324110397826 0.000002191715976465590773 0.000001364023729566688741 0.000000474821826484922887
504.000000 -0.000002470088468276730706 -0.000001421955808345166663 0.000001458870498893885774 0.000002070233455953895063 0.000001305882069063296369 0.000000461739613705467407
506.000000 -0.000002354025007704870759 -0.000001352602350221585119 0.000001395690163973268420 0.000001978286801095796942 0.000001235674726791714381 0.000000431583382591767753
508.000000 -0.000002242867845196393361 -0.000001287602619885689030 0.000001336805570426251690 0.000001892769778262055652 0.000001185420001347935022 0.000000414367170130204715
510.000000 -0.000002144556968764860104 -0.000001241425311641234332 0.000001264948929112428894 0.000001795650663074348408 0.000001128016124074277465 0.000000393881139149457885
510.580000 -0.000002113967342594861832 -0.000001223198093513175929 0.000001248202075781686026 0.000001771314988786683371 0.000001115864221124331413 0.000000391348594518090881
