0.000000 -0.000000000000000000000000 -0.000000000000000000000000 -0.000000000000000000000000 -0.000000000000000000000000 -0.000000000000000000000000 -0.000000000000000000000000
2.000000 -0.000966405825481038600888 -0.002389758058763953845610 -0.003620316861478900961197 -0.004220871692471589789464 -0.000840389357108155092557 -0.000096648011858351933617
4.000000 -0.001243846345026323107694 -0.003511989505105393358231 -0.005867202623721234563958 -0.007401652777956889764366 -0.000862706237973323315088 0.000184348308134295725373
6.000000 -0.001067375861261769332336 -0.003751796883166609239413 -0.006934341568382496566458 -0.009402136515045355497078 -0.000874273266274699944502 0.000321042267040205601958
8.000000 -0.000803349418214956124094 -0.003843906468007258613734 -0.007845515924197498866532 -0.011355808931114848639443 -0.000865526562263548146156 0.000508003874287963675706
10.000000 -0.000750932177559558581073 -0.004478591004004669508254 -0.009593816914853375149574 -0.014369197465968494911714 -0.000841254145293539507856 0.000826951365192385803339
12.000000 -0.000820979209208880255678 -0.005809673812220590705113 -0.012811983891028718568483 -0.019566065254670389483849 -0.001135688294513111963602 0.001168084069528956166206
14.000000 -0.001010857337612766073884 -0.007886159403587866476015 -0.017665044311384877490090 -0.026999034355666223783388 -0.001447920266404324274659 0.001719627172063614272551
16.000000 -0.001847482364532632929249 -0.012001619609315341066780 -0.026026074368919630691588 -0.038377519215225502913214 -0.001962020075505685554745 0.002481672381659563633022
18.000000 -0.003428382744718464630873 -0.017511263217560770616421 -0.036077224607264306299736 -0.050734564785079767912368 -0.001861609900378163266060 0.003654306976489015909570
20.000000 -0.005359662349308434887984 -0.023796870765673567432730 -0.047135489805319716327681 -0.063743643077364714466526 -0.001698444519826952225222 0.004925054728696249065067
22.000000 -0.007319164117595826704599 -0.029863776505117824167090 -0.057518271817681501656416 -0.075808373537837842048859 -0.001723822385990066803282 0.005955946345793789592493
24.000000 -0.008894528145791199061354 -0.034758923831631018119825 -0.065568184584649941148982 -0.085103167197467424753832 -0.001662759780111028925370 0.006825998485725029429894
26.000000 -0.008039776145384064376387 -0.034080228611616074363422 -0.066050227937283670365254 -0.088176804559038035602470 -0.002374962630047003277894 0.006738290327727501465016
28.000000 -0.007884495227357126226342 -0.034841196533226766185454 -0.068343798195709848375401 -0.092544326803468135445030 -0.002616157470177181074145 0.007027038646421894518834
30.000000 -0.006573046730614615605626 -0.034501759805488627086412 -0.070803377194103150893412 -0.097762531013444856076156 -0.003449186909204659395867 0.006700745379404306721616
32.000000 -0.003848147810269319634563 -0.031075212049429139227197 -0.069270642858604097868991 -0.098978030298171662537676 -0.004874161614766838249158 0.005580617621606913901500
34.000000 -0.001222590594919918194697 -0.027448355278531295919908 -0.067025765168974238417121 -0.098885931356302733674646 -0.005768171359672641385075 0.004663139491309438618150
36.000000 0.001119036112681804544591 -0.024411464995140002426366 -0.065146404603099575258973 -0.098549253755876434213157 -0.006818063315914162092479 0.003438846688255399464129
38.000000 0.003219834985790383762028 -0.021523169898746266626155 -0.062960375903229115479576 -0.097226735061059929576821 -0.008157039326475651677684 0.001901170989166435162931
40.000000 0.005030069956196964349460 -0.019139369242168000756488 -0.061340999220960153170967 -0.096137673391744157824768 -0.009559819805671086051513 0.000191223416667429368509
42.000000 0.007107312256346721805744 -0.016212262242068297551922 -0.058860737482231605122163 -0.094042141442352317204367 -0.011568050749280519434725 -0.002045381524915572575563
44.000000 0.008962167733973180894225 -0.013373159130819088982745 -0.056131906601806370871177 -0.091365754270502960721068 -0.013687878393309685712276 -0.004238050988186694949256
46.000000 0.011022786202173102607094 -0.009456630519159301209720 -0.050982760137137241029937 -0.084871297587921348815065 -0.014248239117910465462158 -0.005461084357603952256499
48.000000 0.013341100702303518993341 -0.004685672317894073145295 -0.044080255802075203608315 -0.076009819489406452164282 -0.014755031003539835141036 -0.006765958075836272893333
50.000000 0.016072724390889199519439 0.000888000329050481532721 -0.036102136762588318830147 -0.066454665798387005382075 -0.015751229246374509607165 -0.008440213239731864797166
52.000000 0.018521716281050624314242 0.005780106893262368719655 -0.029113638704213060104387 -0.058119966521893003108534 -0.017131126265476727399406 -0.010253795427880326232573
54.000000 0.020401092795487320991077 0.010389714400093539442560 -0.021367479905042695287332 -0.047813724412017873099945 -0.017981263896892120401905 -0.011871568563809303809009
56.000000 0.022596580130137634834231 0.015252186630145287554727 -0.014008999314780478870346 -0.039070858565081689750542 -0.018353197073822900831086 -0.012969304070829952221788
58.000000 0.025069958265726544760499 0.020133702636465383717379 -0.007074729455983722221923 -0.031227719197787776744812 -0.018575938431538267098242 -0.013828165804090514559577
60.000000 0.027023562688127212433331 0.024824971425950338732580 -0.000204474967765011609059 -0.023640601747404673543818 -0.017668808040017781879616 -0.013420898702300980073754
62.000000 0.027736323238805343782687 0.028392202251090067205430 0.005930051525184801448909 -0.016463861556416149040105 -0.015820896986601384881510 -0.011847991284389652877351
64.000000 0.027890932442993607298654 0.030556090671024240673637 0.009808329857617670635705 -0.011845701859735513830629 -0.013883356806399670471674 -0.010115738358631934032394
66.000000 0.027259377797167250179200 0.030632781212721400809773 0.010842523357750821766388 -0.010086897195128148932430 -0.013125189255335827781535 -0.008839105407946096920613
68.000000 0.027221715661476353353976 0.031503722180047537271275 0.012599551885389763741796 -0.007860901415146830106817 -0.012901997390083200234479 -0.008337305173333352595333
70.000000 0.026657050853102159937436 0.031473962705303594467043 0.013428563433303404572872 -0.006416426618582213477204 -0.013102224785374694954188 -0.008257156165363016553371
72.000000 0.024917156525747056333708 0.029647278119339419422129 0.012557928934081693389535 -0.006301040246196641138321 -0.012810564353681301238974 -0.007615740000655821934084
74.000000 0.023873076811283901188521 0.028503586294371389270319 0.012161720388068720383190 -0.005865248128649833830872 -0.012535628977794560645620 -0.007296453026288812759859
76.000000 0.023340855255943527418738 0.027719042562084413028334 0.011878661203470437107699 -0.005464563939120614145806 -0.012680468816059964690113 -0.007324041792650837212619
78.000000 0.022177767462751137028665 0.025987754901918697775232 0.010866020836933450166573 -0.005477204100580558045197 -0.013238550872775244407475 -0.007668892800503728478245
80.000000 0.020403811882799997162730 0.023930667895908936532168 0.010355854330860591802632 -0.004654527575048903777211 -0.013609083945766339493466 -0.008019782213174045729098
82.000000 0.018433390319283579628085 0.022113070949759665306811 0.010417335266090380421766 -0.003110366953423507937332 -0.012965312257825895719821 -0.007651980232764212484786
84.000000 0.016152891344826978553550 0.019910169779126293126970 0.009915021459871053988167 -0.002070558047150504107914 -0.011952492451661132430440 -0.006978103887759130354029
86.000000 0.013249069572987104415063 0.016702880527262584098303 0.008428219435429665229442 -0.001844562042144451017786 -0.010777672180961579348479 -0.006061611481526199725345
88.000000 0.009688749515506175913337 0.012441373044140677586733 0.006056471939290973896530 -0.002104686718739832117231 -0.009311556864167055969084 -0.004910072210474039806904
90.000000 0.005502826458348148222499 0.007259884453842417074976 0.002779903756658730264867 -0.003126493275894372605994 -0.007602040230969135323202 -0.003460243646913083864769
92.000000 0.002727887138549935433507 0.003912838773944113737735 0.000755319393741466470205 -0.003473572007832274183281 -0.005840133085343259325417 -0.002066945291052412793376
94.000000 0.000363205707487314084086 0.001118813209510953476933 -0.000893337271815403425809 -0.003634353128000564030209 -0.003805946853737317975286 -0.000460864302542595750435
96.000000 -0.001249140814857069769692 -0.000779940758391680418610 -0.001870550406731171866684 -0.003423543109367869173576 -0.002518541604228234295770 0.000326943751999963767938
98.000000 -0.001840672752870942899955 -0.001526576558250043388898 -0.001907127327129285680046 -0.002572480545946999232892 -0.001606147105450098132653 0.000588934643181689707406
100.000000 -0.001673278100171942403898 -0.001390488348967395615743 -0.001248928011692215182121 -0.001274213663392840178643 -0.000888342487994333825443 0.000532857759251480016770
102.000000 -0.001451957446159859955667 -0.001192436771666364114450 -0.000650079530251791389873 -0.000165185320846743065705 -0.000078832711592073954942 0.000653555480889188387256
104.000000 -0.001106308749901413609681 -0.000800367037004603445148 -0.000031375963341054879962 0.000699833084136834075555 0.000196203607546400631044 0.000512682010497199228474
106.000000 -0.000665351461419827049787 -0.000195470890910423746164 0.000685294388148482242970 0.001452410598371544486751 0.000320117795673315345874 0.000381403699087967576042
108.000000 -0.000298719429551803331187 0.000285094985150650948296 0.001232163436861103593747 0.001993789639116095701449 0.000349016049657389535680 0.000280627723302111328936
110.000000 -0.000131325694757896538475 0.000503068012511137920353 0.001519333655664597366661 0.002313346674624306917312 0.000210365877080301327167 0.000036974230252864370900
112.000000 -0.000173924446989645652226 0.000462419287692868597600 0.001542603042906751749028 0.002397486596266747670148 0.000210250762854156134172 0.000003519045799827492648
114.000000 -0.000259742768518521479834 0.000367269259962999569235 0.001506236508726962889174 0.002425634911513886368684 0.000264835716164741816203 0.000041618492684952074212
116.000000 -0.000329726343425627962860 0.000290237362774623973080 0.001482898454735450321715 0.002460929272021707830964 0.000314184886696375895773 0.000071697000480929018820
118.000000 -0.000386636651005213321988 0.000228308330399708443725 0.001469345346862079362826 0.002499925615254977671192 0.000358756066562607319435 0.000096077294008101063157
120.000000 -0.000432312878683089631127 0.000179493784406129999612 0.001463678053669108377818 0.002540758738625783965531 0.000398263179930022099412 0.000115596747597603474972
122.000000 -0.000468585601674434708199 0.000141756724033244237192 0.001464192052733784363966 0.002582064292444816427236 0.000432696677022261486957 0.000130988640717832237814
124.000000 -0.000497218958262290490480 0.000113092055418459176523 0.001469360117372940860783 0.002622854667797846952432 0.000462331996185091464568 0.000142982952109551323056
126.000000 -0.000519792883164363513082 0.000091684378718720214497 0.001477916726279513218167 0.002662501382018052017986 0.000487622218959587279061 0.000152258547829311758747
128.000000 -0.000537648977906093070503 0.000075983493012917065462 0.001488878571431542178344 0.002700680303635129200085 0.000509102009545147325166 0.000159406715005757656329
130.000000 -0.000551886962152558276790 0.000064715425980695751420 0.001501522341268576908949 0.002737305482757275768013 0.000527320974796576967189 0.000164917383976645286203
132.000000 -0.000563383689258735464479 0.000056864058133473359684 0.001515342192170383590205 0.002772458372663718240841 0.000542805379891888499858 0.000169184667469275391936
134.000000 -0.000572823190602185700927 0.000051638761496519374589 0.001530005682025243002667 0.002806329330279277653459 0.000556034214653988874931 0.000172517257804274661221
136.000000 -0.000580737322698255493611 0.000048425601439574167189 0.001545302247281192184469 0.002839165673409730587112 0.000567430159900819534348 0.000175152992393630386287
138.000000 -0.000587532434026643603231 0.000046758947767144478237 0.001561114446032452239901 0.002871241272337213181615 0.000577357577661837657011 0.000177272984551416027408
140.000000 -0.000593516130212802550149 0.000046290388067841525387 0.001577391323367604864664 0.002902835814776016064298 0.000586126234229884259495 0.000179014564171413434381
142.000000 -0.000598926279833402385941 0.000046751790551001696085 0.001594117310436418471706 0.002934213834768624202393 0.000593995245386494158564 0.000180480704054569236110
144.000000 -0.000603938251000393148786 0.000047950809210628999267 0.001611311787061582177435 0.002965626034813938043111 0.000601178387032330510502 0.000181747388959061227957
146.000000 -0.000608687945048193355772 0.000049741719169506746470 0.001629008776643486216054 0.002997300912005565736579 0.000607852872791896786664 0.000182872292853154019528
148.000000 -0.000613276127143679104098 0.000052020591494141582719 0.001647254146458285075511 0.003029444723788049954188 0.000614162822588395422400 0.000183897401370139006735
150.000000 -0.000617781827885800793355 0.000054709629985314147023 0.001666098526845667974691 0.003062243580166300067208 0.000620226066517855331890 0.000184854030336942839856
152.000000 -0.000622263957775738563161 0.000057756537736892409063 0.001685598082955322906881 0.003095866395109272192071 0.000626139207890461521946 0.000185765813151592969850
154.000000 -0.000626769217339385423422 0.000061123188546706883821 0.001705809018646948539699 0.003130465668287529725639 0.000631981243024461658217 0.000186650324172208076194
156.000000 -0.000631333469851796556457 0.000064785459582114928953 0.001726789705704241846551 0.003166182312658680220174 0.000637814574055727326850 0.000187519329596600044761
158.000000 -0.000635987084996881462187 0.000068726686428514824042 0.001748597733847290398856 0.003203147100381344234560 0.000643693517014357736127 0.000188383083748363308173
160.000000 -0.000640753964166228826352 0.000072939462322447659983 0.001771292932008617466641 0.003241484105959232912830 0.000649662483753141997353 0.000189249077077650851818
162.000000 -0.000645654531837730927442 0.000077421208594555951388 0.001794935415833062968688 0.003281312505669298305172 0.000655758642710427296953 0.000190122636324272957032
164.000000 -0.000650706313572302808175 0.000082174413275573474818 0.001819588069447515901733 0.003322750318996987861642 0.000662014395088800808135 0.000191008070670277408081
166.000000 -0.000655924933986504893335 0.000087205221766541887013 0.001845314958612196808846 0.003365914374019970609075 0.000668457721603177507444 0.000191908095481500493018
168.000000 -0.000661323991534191351661 0.000092523598224086094056 0.001872183584587130576390 0.003410922595642615351430 0.000675114549623523439031 0.000192825898622963866824
170.000000 -0.000666918858504526000652 0.000098139041627202637801 0.001900262026609469186850 0.003457894788499836155604 0.000682007733854323003504 0.000193763352591656482079
172.000000 -0.000672720644081407481013 0.000104068547351468301799 0.001929625523466621311516 0.003506955975703109421038 0.000689158192961597700077 0.000194721049135024954976
174.000000 -0.000678743031552539542034 0.000110327341543627340079 0.001960350752481404036642 0.003558235519705702388366 0.000696588340438295764573 0.000195701698804243395509
176.000000 -0.000684998912077701589685 0.000116934324813043556603 0.001992519788873422636327 0.003611869173868853533094 0.000704317754571936170162 0.000196705364982788547760
178.000000 -0.000691501223548036058307 0.000123909936947814454779 0.002026219496246204395534 0.003667999829732880839178 0.000712365781584658498693 0.000197732008115916166107
180.000000 -0.000698264011030706494183 0.000131277020617968551673 0.002061543723883684647857 0.003726780706167267739892 0.000720755096135683621938 0.000198783874947683570017
182.000000 -0.000705300679042928941459 0.000139061136734191435850 0.002098591618564324672719 0.003788372531476452177712 0.000729505310265834484330 0.000199860128339684014380
184.000000 -0.000712625031830797805478 0.000147290686962298468868 0.002137470351690771378644 0.003852947999879067358941 0.000738638708618132933462 0.000200961166275473007139
186.000000 -0.000720253619289600304117 0.000155994103674598756475 0.002178293239031166370762 0.003920691034037506773891 0.000748178663406226605176 0.000202087682382818563777
188.000000 -0.000728202180812643671236 0.000165203393736751804124 0.002221181334831308969852 0.003991796927406722310383 0.000758147696936167661899 0.000203238362400358726521
190.000000 -0.000736487708315809838817 0.000174954332653836150532 0.002266266913152151403488 0.004066477774013963798760 0.000768572734346972580473 0.000204414339357376141941
192.000000 -0.000745128350438707524363 0.000185284424155913757682 0.002313689799954091966955 0.004144957780267051819512 0.000779479028007597782648 0.000205614240478341301233
194.000000 -0.000754143371338988508998 0.000196234504375161718020 0.002363601557539537437874 0.004227480792447012997171 0.000790896587054983534956 0.000206838771148910556888
196.000000 -0.000763553237398644510728 0.000207848625523957778599 0.002416164292101951292790 0.004314306286895575395790 0.000802854740894685644029 0.000208086329125542696464
198.000000 -0.000773380358449857955964 0.000220173917683026188798 0.002471552347479284619108 0.004405713978968116978363 0.000815385661697043797116 0.000209356159309963691653
200.000000 -0.000783647525633804006850 0.000233263154032011178112 0.002529955286245965263153 0.004502005991171995069600 0.000828524556717824371688 0.000210647798076480150366
202.000000 -0.000794380421026482145229 0.000247170332749578332103 0.002591573292825133725814 0.004603503862007291176639 0.000842308343150928950059 0.000211960128878801236678
204.000000 -0.000805605367872147927824 0.000261956498182740920352 0.002656625779918413837732 0.004710557122222644096943 0.000856776281920568118927 0.000213291511064837206822
206.000000 -0.000817351962435917218583 0.000277685080159258742410 0.002725346096920162886068 0.004823539708070864913403 0.000871970892780927326303 0.000214640429918612040804
208.000000 -0.000829650749602632597325 0.000294425950822925453984 0.002797986230966981353874 0.004942853827206285764750 0.000887938096643356520460 0.000216005658308727913151
210.000000 -0.000842535644708688503945 0.000312253036612090766836 0.002874816669846816993145 0.005068932055219584932593 0.000904726577390010597290 0.000217385405428113017562
212.000000 -0.000856043246257781002134 0.000331245367864779088375 0.002956127459453111207266 0.005202238526966157863840 0.000922388007272514518983 0.000218777108469182091479
214.000000 -0.000870212065199500294649 0.000351488943196256401619 0.003042231312450815929743 0.005343272688103710768570 0.000940979788030487968205 0.000220179532451180023315
216.000000 -0.000885084715923751337747 0.000373073572456536354299 0.003133460474511657635477 0.005492566575555501637296 0.000960559764871356290897 0.000221589037636445022102
218.000000 -0.000900708103096429352728 0.000396094504351924962295 0.003230171078382920377137 0.005650691755281227537933 0.000981194513704243325911 0.000223005194400941657382
220.000000 -0.000917131817660712207393 0.000420653904132747130922 0.003332744195433799249545 0.005818259366968486084870 0.001002952952700054143134 0.000224425585342240355982
222.000000 -0.000934411949729885347830 0.000446856617354874610833 0.003441583116718179621157 0.005995919204256717170709 0.001025908909055763462356 0.000225848421397938634893
224.000000 -0.000952608355714125226363 0.000474814218477725058423 0.003557117842274195099184 0.006184364090908921370027 0.001050141808145070056180 0.000227272412630477544998
226.000000 -0.000971786968078778581014 0.000504641545931682031396 0.003679801440159534160063 0.006384326410764406059539 0.001075736679004583125005 0.000228697248091607867890
228.000000 -0.000992019248707140836527 0.000536457629786909204542 0.003810111583991336765831 0.006596580539257095032735 0.001102783243373148865801 0.000230122601301902506010
230.000000 -0.001013387035229055925523 0.000570379388219815109014 0.003948545957256293682802 0.006821940205675624396831 0.001131379476695759753874 0.000231551147068535876760
232.000000 -0.001035977353486882334907 0.000606528529203123546905 0.004095627113813365971495 0.007061260688741508029231 0.001161628104501926045736 0.000232985772476592301484
234.000000 -0.001059888612336882737774 0.000645022380040093773999 0.004251895210821849020733 0.007315435150256302532235 0.001193640294598315946401 0.000234432788867756702672
236.000000 -0.001085230544093983371529 0.000685975501823247037041 0.004417910467565648244270 0.007585397315852256475144 0.001227534324656841518281 0.000235900487987154334904
238.000000 -0.001112122812696846345035 0.000729501745299246493089 0.004594256485938343938236 0.007872127099960601892548 0.001263437242560700541835 0.000237399988696388385915
240.000000 -0.001140698584065849389979 0.000775713112746910038800 0.004781545395609548484983 0.008176661058488288863488 0.001301485640217895202800 0.000238944482169663917825
242.000000 -0.001171103416646782557561 0.000824726045546891688674 0.004980430416944879763730 0.008500110971952603428070 0.001341829179592198212703 0.000240550404096048227971
244.000000 -0.001203494072397956601503 0.000876670077258145160476 0.005191626054522153685400 0.008843693523015791826958 0.001384628754765995523740 0.000242232374327634259002
246.000000 -0.001238039231971182520253 0.000931699647920156029217 0.005415938048832691711909 0.009208774778879378827834 0.001430062903360950236561 0.000244003969364371393978
248.000000 -0.001274912006907752588802 0.000990019916995858338324 0.005654311567355215298325 0.009596934667757649195519 0.001478326902335968390245 0.000245870146780367295446
250.000000 -0.001314288327653323354763 0.001051909764391600540789 0.005907884423977361430802 0.010010042348917204402259 0.001529637503940080344236 0.000247823477779580590100
252.000000 -0.001356337674938389893653 0.001117757769321305917620 0.006178055064737291053600 0.010450344932430601779805 0.001584232522396086979832 0.000249835153094223830911
254.000000 -0.001401216661971902257069 0.001188094554907334057456 0.006466549358514830925238 0.010920557872713695587996 0.001642374087163115748203 0.000251848100690164043193
256.000000 -0.001449062445826742586905 0.001263621810705626473739 0.006775478458096092018725 0.011423940310874939121910 0.001704347290954944102101 0.000253769351118592523166
258.000000 -0.001499991093841148174712 0.001345224789743608082015 0.007107366942948328304708 0.011964331728084455497285 0.001770459279272829089535 0.000255466094569913948834
260.000000 -0.001554100582110707392397 0.001433962446365672068968 0.007465138146047219959434 0.012546132025858329137047 0.001841036740221574027898 0.000256766950375603641380
262.000000 -0.001611488955763293925288 0.001531013020977339562229 0.007852023940913974847655 0.013174187222101728031443 0.001916421133121585769835 0.000257471318598978798214
264.000000 -0.001672283187419470670831 0.001637575114744071504147 0.008271388454322591010648 0.013853561027647518302808 0.001996965579460783894727 0.000257372253163029075535
266.000000 -0.001736685860133026400309 0.001754710932671055441390 0.008726451613901096276971 0.014589182669947306850156 0.002083031130981601811852 0.000256291497442313540023
268.000000 -0.001805036220746095761841 0.001883144925107544396040 0.009219933656625423773479 0.015385395998497940206473 0.002174984254157158892334 0.000254125359859393054433
270.000000 -0.001877882636108963235189 0.002023035774472957404324 0.009753657950437876617000 0.016245460630504162530263 0.002273201879675477727477 0.000250902090682109395366
272.000000 -0.001956046079318679142139 0.002173772920968723189328 0.010328192225503698975508 0.017171098293453260913433 0.002378078772528497818878 0.000246835703510930382695
274.000000 -0.002040663842311368943172 0.002333847790302564714771 0.010942624441137900268006 0.018162208377468902487095 0.002490040533228138515398 0.000242365855678828358592
276.000000 -0.002133184687974804937677 0.002500871174138706055923 0.011594582492245656540897 0.019216875354541394088637 0.002609559160442119669920 0.000238168927649980188051
278.000000 -0.002235301139150460986854 0.002671768731597770358405 0.012280542399273404463589 0.020331714538171192369065 0.002737158398404710216156 0.000235125053056290165112
280.000000 -0.002348825738335565561227 0.002843139112167365843004 0.012996402418490786076499 0.021502543046632068696189 0.002873419796126368708916 0.000234247990119732901445
282.000000 -0.002475520901183813488045 0.003011744023194943154637 0.013738274241304145040221 0.022725329687829254332598 0.003018978041417924498141 0.000236572553956374855271
284.000000 -0.002616909661339470328373 0.003175071201716586806463 0.014503417220061903813999 0.023997361066083279512728 0.003174511244171551553606 0.000243009353104678069157
286.000000 -0.002774100782443202507094 0.003331912385487629472275 0.015291258891902109740002 0.025318586996681203410420 0.003340733883092351658856 0.000254179385537606607540
288.000000 -0.002947650976231010969825 0.003482917597448488989526 0.016104471243670225033551 0.026693127242710962959693 0.003518398682744242923770 0.000270239685563888453607
290.000000 -0.003137476921895498028353 0.003631093196334271924752 0.016950050490095808913837 0.028130857413573438080556 0.003708308717703941419924 0.000290713632398660300551
292.000000 -0.003342807176413744880278 0.003782196314245023054113 0.017840261282075012272408 0.029648828651831018315965 0.003911319118322346619077 0.000314342193877265377311
294.000000 -0.003562168924930194605777 0.003944813491943857317046 0.018792900946915137849746 0.031271653991143351369875 0.004128257467214577550174 0.000338994502534082178292
296.000000 -0.003793438721529147298478 0.004129500416016748318149 0.019829389067693676401705 0.033028596439457907907311 0.004359590952055483921435 0.000361749486697980442412
298.000000 -0.004034216148334880160109 0.004345444098780773881097 0.020967424207445378714354 0.034942756561475961374352 0.004604617348070137901328 0.000379474915877408669040
300.000000 -0.004283321482489540164840 0.004592226160158286406288 0.022203966344124713427899 0.037007221872455961508841 0.004860309820927835415538 0.000390546196033129695141
302.000000 -0.004544318224391981873855 0.004846807671513931985163 0.023490889793541275265554 0.039153523226714129212844 0.005120899651551111611547 0.000397875694345305435523
304.000000 -0.004829239082040060436485 0.005055557224519166732712 0.024723713373400419551773 0.041240696527837544804740 0.005379337688415549052767 0.000411059802353665247436
306.000000 -0.005157403186973897810108 0.005145418509544774990361 0.025766789829505372388940 0.043091284327658088693092 0.005629706053500343858331 0.000444470459059721854228
308.000000 -0.005548146519260548081842 0.005049933042455776247004 0.026500921815601256870121 0.044550398870291156583345 0.005868672777951388329354 0.000512504897780974451836
310.000000 -0.006013439082065990919090 0.004728187247548293510591 0.026851632747647142390734 0.045516421234670451090309 0.006096225811627188455322 0.000626707479400951555405
312.000000 -0.006554007284765849504493 0.004168095288399682740721 0.026785777913888985518609 0.045932747946844744435513 0.006315434239426515050653 0.000795302896744758862704
314.000000 -0.007157930497931164030845 0.003382430285894407178543 0.026298329799490722386013 0.045770605755183622898041 0.006529084874449826020326 0.001021501745296873008007
316.000000 -0.007802020926380581408721 0.002403449419266825027447 0.025406129451266367541562 0.045025140218794772184463 0.006734727570741229699114 0.001300291174391128568022
318.000000 -0.008457097553295111341809 0.001275030723419063715535 0.024144742927569753931927 0.043717997690274811029010 0.006923317999158033232698 0.001617910502891032166820
320.000000 -0.009095371262982090629357 0.000042089444956426653641 0.022559735508222933386691 0.041891428420369809793034 0.007082910263867581851516 0.001955780358426382169179
322.000000 -0.009695667949230119680992 -0.001256982090708735032292 0.020698225876668127631852 0.039599802512736766157975 0.007203115700352706769760 0.002295169976881182832135
324.000000 -0.010244926702204431440135 -0.002591053644181821446341 0.018609740044506346140496 0.036912006409839333287426 0.007277988964616670386487 0.002620182084671483346144
326.000000 -0.010737735261807389991473 -0.003934497833313799382282 0.016349719939784360112078 0.033916787341619979156970 0.007307919632480657651241 0.002919813145366177697948
328.000000 -0.011174062412885165523901 -0.005266035075299468556920 0.013977567409969459191754 0.030717614868924842524978 0.007298255381676100467248 0.003187568574565292477824
330.000000 -0.011555038949573073064903 -0.006566529448698958833230 0.011553163043939673054750 0.027421675477555411404307 0.007253559913013202936627 0.003417146293237304476020
332.000000 -0.011878753150020333537173 -0.007815247246323124216683 0.009136222787949489776427 0.024131213532444475977634 0.007172418977553272553815 0.003598021340881631374015
334.000000 -0.012137438287690994684342 -0.008986369345364642394203 0.006785918429048137454074 0.020935464593505103553239 0.007047236845691268875003 0.003715664184897474534020
336.000000 -0.012316219480972490779580 -0.010046009243655958098618 0.004561908415036870258208 0.017907833975630095546538 0.006869377554247594296066 0.003756548678205253854329
338.000000 -0.012394392055369367680595 -0.010950471630469110762007 0.002529030731752284020392 0.015114420228259857134634 0.006637691147838142152748 0.003714980551629777551920
340.000000 -0.012351808755326107794326 -0.011652871061670160707235 0.000754370946015466350976 0.012618744936443070103760 0.006365322273266612110310 0.003598591762511715603373
342.000000 -0.012178503484612308860324 -0.012119585125785994894621 -0.000711176950102470760602 0.010468241111282044000785 0.006078396425035046887753 0.003429197518283706464653
344.000000 -0.011879216248816260731447 -0.012342775400931208645838 -0.001851398845970894007154 0.008675609940758435487118 0.005805321866778124541286 0.003236411202972165786218
346.000000 -0.011469017377832686765959 -0.012337576311637997797388 -0.002684043602062736576935 0.007217839481316688093893 0.005564181853385339465712 0.003046461664874594056640
348.000000 -0.010966266884143999887913 -0.012130853596236333344360 -0.003246000595385881842825 0.006051078035904160386249 0.005357686319033268945722 0.002874197822438155983105
350.000000 -0.010388560366056159151027 -0.011752562937973705034511 -0.003580074988605671214292 0.005125092235261708914495 0.005177295444217262961051 0.002723042592962006489682
352.000000 -0.009750478880041922938315 -0.011231362781916770857138 -0.003728845392844264659826 0.004390009099665112372868 0.005010072748782627011233 0.002589403908565274334969
354.000000 -0.009060128997876133044587 -0.010590317325227697337064 -0.003731122337562499131219 0.003799025787309277812920 0.004841872297980810702089 0.002465818288268078507797
356.000000 -0.008316185592746334898084 -0.009842297061956457177034 -0.003616764417814633762044 0.003312958846547215969319 0.004656526020257337715458 0.002341157530545335489075
358.000000 -0.007512127887526984584832 -0.008991933645058673707506 -0.003403260051371102216239 0.002906329200183255852957 0.004436357165708021237094 0.002201155577191335737525
360.000000 -0.006645571325020427529140 -0.008043379323735224198377 -0.003097534279884650489784 0.002569709372684191115571 0.004166078507802469486909 0.002031428367849747243512
362.000000 -0.005723140756131264196560 -0.007005586257080934076136 -0.002701757574894587607406 0.002304692401458326329877 0.003836428010445043067927 0.001821114317756735616685
364.000000 -0.004761964113170025041100 -0.005897390672886567396238 -0.002223149345823351944601 0.002112824259062446533713 0.003445893835784796192107 0.001565842458180959984385
366.000000 -0.003793006692729677682002 -0.004755936163281689055271 -0.001685116121471454163697 0.001984710326743653607817 0.003002108746635181492357 0.001270550483093020512765
368.000000 -0.002861506167295042608184 -0.003638986781826609832879 -0.001130490067713038138467 0.001896777370342978387766 0.002522997250923530131173 0.000951295542055757923500
370.000000 -0.002019090820955423293964 -0.002613896114580769453051 -0.000612621259883846256203 0.001817065695648560977316 0.002035631865916986537463 0.000633999074013619342768
372.000000 -0.001311662726814586928462 -0.001740795002108850046338 -0.000181338733015609166518 0.001714600284535035224984 0.001571702930307916764793 0.000349251175726309663963
374.000000 -0.000767834619856227443453 -0.001058106749699243937998 0.000129901821690980287310 0.001568802953101617594575 0.001160299100469940362587 0.000123613593541661875201
376.000000 -0.000390709539118571063786 -0.000573396235630478016791 0.000312957407708811257037 0.001376849348743759216332 0.000821002508306872542769 -0.000029095198388219645165
378.000000 -0.000158708606669859529940 -0.000264649363890587902785 0.000384810647137420280915 0.001153869060177898113115 0.000560515696886436506560 -0.000111310539739182889169
380.000000 -0.000035566432202691677174 -0.000091388336742485512662 0.000378080124373192285724 0.000924910920288945993979 0.000373356445101857262105 -0.000138527321570788332101
382.000000 0.000017589828901530073473 -0.000008146449317752413978 0.000328802441613191165793 0.000714360743260805371516 0.000245940556958755855363 -0.000131762122258691238320
384.000000 0.000032837774541296779122 0.000024139599379628534501 0.000266141966658353147385 0.000537946956877009244309 0.000162065105735026122966 -0.000109872083707864988248
386.000000 0.000030986803629044187879 0.000031701162024586767804 0.000207096866779281254655 0.000400109279772409016495 0.000107536361960632617738 -0.000085092601791773698713
388.000000 0.000022745776337061666549 0.000028541793332362737628 0.000157932228644581571734 0.000297043212840717146123 0.000072270124011059868555 -0.000062884866274352059284
390.000000 0.000012828578866809031318 0.000021139556564506011970 0.000119100391922034303947 0.000221751048157541551503 0.000049768212872527610804 -0.000044617426504880488560
392.000000 0.000003309691578828770909 0.000012572989127341891078 0.000089235038406784366965 0.000167509641153205598735 0.000035794789500527267345 -0.000030134645207430502432
394.000000 -0.000004770529983003125896 0.000004549904964543220923 0.000066833966088672360113 0.000128952376929968080908 0.000027377332634553994302 -0.000019021615951578438027
396.000000 -0.000010915291233608280812 -0.000001960218619882199829 0.000050573954423184946407 0.000101978148424843249029 0.000022378255376247260371 -0.000010861364172424847952
398.000000 -0.000015125689055350707724 -0.000006687918753985247235 0.000039127844466007382046 0.000083326494397100429228 0.000019345610764898853141 -0.000005175070520190065310
400.000000 -0.000017708525646466028223 -0.000009791944578312756681 0.000031273236266116226378 0.000070494204175676358857 0.000017401166076110832266 -0.000001411438661173862729
402.000000 -0.000019073063996899876604 -0.000011634476634111405054 0.000025935713516059849689 0.000061573881987882171369 0.000016047211383378039872 0.000000963032583605594531
404.000000 -0.000019588969890931456533 -0.000012576969509852948059 0.000022289525056250488019 0.000055214344342786262753 0.000015011592476830777331 0.000002387299237076895432
406.000000 -0.000019566781414212872222 -0.000012933412780008346561 0.000019745221996848670289 0.000050508902984397844595 0.000014164938390672980625 0.000003198518204666233685
408.000000 -0.000019220430102794815863 -0.000012931380823287032334 0.000017895145267938297333 0.000046853576042156446055 0.000013426835686361907523 0.000003620346450047685020
410.000000 -0.000018681329005829517415 -0.000012715002396920552051 0.000016480417401659129404 0.000043869448852352133008 0.000012761643047526687533 0.000003803115063507232302
412.000000 -0.000018062043313211345651 -0.000012404509087963139165 0.000015321577408284432157 0.000041315478085764702459 0.000012161630990064757922 0.000003853747066193097571
414.000000 -0.000017404959897253450803 -0.000012039208183230790648 0.000014336404886540076478 0.000039055113796713091954 0.000011604053493366741717 0.000003824181893791559933
416.000000 -0.000016731436424747394350 -0.000011645159074503208188 0.000013469594272544525444 0.000037008192737154383843 0.000011075664275335534955 0.000003743078385986676541
418.000000 -0.000016065053970858638393 -0.000011248517258153101724 0.000012680922388118627287 0.000035113998606791341185 0.000010575206163592500819 0.000003637393620921324769
420.000000 -0.000015410353570110662109 -0.000010855946138997110220 0.000011950354877744951578 0.000033344859639029052895 0.000010094419187599135740 0.000003509939182213391415
422.000000 -0.000014768708428077725672 -0.000010460786739024648803 0.000011282639804254353992 0.000031696593654488119636 0.000009640323111558045136 0.000003376950083907922656
424.000000 -0.000014135895277514149172 -0.000010061187778946130552 0.000010665666345399733064 0.000030141555580201763014 0.000009200780532060029399 0.000003234395219468398657
426.000000 -0.000013522988639508433148 -0.000009662058311914594272 0.000010104099414143518035 0.000028689849773156171885 0.000008787387666196521673 0.000003095663414063385928
428.000000 -0.000012928971862623572954 -0.000009267705774004913842 0.000009588419487455385697 0.000027324837522052667710 0.000008388522705230251416 0.000002956536744544506525
430.000000 -0.000012360083490911606159 -0.000008889411814605529288 0.000009091372572533447724 0.000026013209596711063727 0.000008020775621722902714 0.000002833275261149283613
432.000000 -0.000011802575459838119938 -0.000008510956962781480079 0.000008633486038515919271 0.000024776606789025795583 0.000007660604183166312808 0.000002706913630777673624
434.000000 -0.000011278342806339466806 -0.000008156964167168170908 0.000008194085762392420042 0.000023597841396253706973 0.000007319466434991080188 0.000002589644157597119832
436.000000 -0.000010771839566473262394 -0.000007810574258594411962 0.000007777632522370213431 0.000022467457538312443724 0.000006994821551946229259 0.000002479261009734736748
438.000000 -0.000010280542992018224094 -0.000007466862970507909504 0.000007391588114975802671 0.000021398248634837684648 0.000006687793980828227464 0.000002375782747509545343
440.000000 -0.000009803811313897898874 -0.000007130337441097504421 0.000007026904477288311008 0.000020377027961276643494 0.000006383624580416769830 0.000002268892202064869466
442.000000 -0.000009340565743217745824 -0.000006801757448003804502 0.000006679500419201641375 0.000019397139531574273622 0.000006094449037367078188 0.000002167809435370129095
444.000000 -0.000008890057743815572811 -0.000006480338182001394469 0.000006349132700604482889 0.000018459071668825947904 0.000005823256259447923353 0.000002075944859170790313
446.000000 -0.000008464725987179676827 -0.000006182957890914760280 0.000006019291524890079451 0.000017545473122157630814 0.000005549834612102659950 0.000001980819761607354551
448.000000 -0.000008041380809075524789 -0.000005868265527866375994 0.000005743415321162431196 0.000016711194778502100474 0.000005283299827328084867 0.000001881907379037229126
450.000000 -0.000007632481836643183404 -0.000005561470925876250836 0.000005483744951764722323 0.000015914947271359609459 0.000005016744929485988966 0.000001777088787400155285
452.000000 -0.000007233975468408381749 -0.000005258570550287699016 0.000005238818644641271711 0.000015148217322907223131 0.000004763049519217188274 0.000001679463788149536369
454.000000 -0.000006858531478681775661 -0.000004973001375164054274 0.000005005142692237112489 0.000014418761536555685100 0.000004521232816632731538 0.000001587534958680871779
456.000000 -0.000006509333699098557405 -0.000004709582914813091747 0.000004778257674907480652 0.000013724872326790628460 0.000004297131823273893862 0.000001505291772017659602
458.000000 -0.000006196065700627190145 -0.000004489223353366953784 0.000004534247897023996584 0.000013045981905584841536 0.000004084260657656120952 0.000001430870955514774874
460.000000 -0.000005894218506257435589 -0.000004273766594027366158 0.000004305877147464083358 0.000012398723454989431185 0.000003877328094977452913 0.000001354715968661184425
462.000000 -0.000005618345352997442534 -0.000004081798321754994962 0.000004077225092045907146 0.000011778974965901074426 0.000003696589455159560120 0.000001298442236749147315
464.000000 -0.000005346673807234107570 -0.000003882889234925897046 0.000003876881622393866646 0.000011198297714860953054 0.000003508852309627775175 0.000001232955099469094635
466.000000 -0.000005094836288923221272 -0.000003705380186207030142 0.000003681134511186716701 0.000010653876002726801441 0.000003339562110382436810 0.000001173664506859294467
468.000000 -0.000004861695427823816627 -0.000003550561730584195474 0.000003476637801368436143 0.000010119386085143650299 0.000003180656209695866114 0.000001119536252003875217
470.000000 -0.000004627445811180953554 -0.000003380119357577210031 0.000003304073882098300469 0.000009621072597336787608 0.000003029014856782914911 0.000001069665985230533850
472.000000 -0.000004402041777962861087 -0.000003214166096271525637 0.000003143429821703148219 0.000009148988654201091250 0.000002883807973631042344 0.000001020975661203749286
474.000000 -0.000004191020903990417305 -0.000003059148861886026709 0.000002993952852963017713 0.000008711794591352432340 0.000002754215640702519189 0.000000976506208915607421
476.000000 -0.000003990136554256549724 -0.000002908449522486799404 0.000002860536488818725724 0.000008306892044621715806 0.000002619632715443744958 0.000000926588269580124668
478.000000 -0.000003792233232518740489 -0.000002757951799976011353 0.000002734642855951867848 0.000007919292687430462966 0.000002493372975692739581 0.000000876881416739035031
480.000000 -0.000003605938403124993832 -0.000002623869987794803687 0.000002599709052887136654 0.000007532944485824863366 0.000002377532869176341473 0.000000839331127157837388
482.000000 -0.000003432423968081116608 -0.000002498687283848585169 0.000002473211099748266383 0.000007167287696059329806 0.000002258744427612976972 0.000000799775461786663299
484.000000 -0.000003271298720961265014 -0.000002384685601150341550 0.000002348963800824702887 0.000006821129600179624791 0.000002152205466000976249 0.000000760355543848827538
486.000000 -0.000003100154164129375542 -0.000002247489678925640265 0.000002257329827752340870 0.000006506778966016583466 0.000002047456140512626476 0.000000721149571444370002
488.000000 -0.000002927645776848656462 -0.000002112375730237431106 0.000002163823646665264283 0.000006195839358274011644 0.000001932829821038069065 0.000000673715261235327447
490.000000 -0.000002786814141422882567 -0.000002004448812428719225 0.000002072913318403398928 0.000005912241537402249300 0.000001839587927264547945 0.000000642691029105717302
492.000000 -0.000002655762133349502537 -0.000001914179771049631282 0.000001965363893737891115 0.000005621697307163087273 0.000001749080523740852160 0.000000609028328285455574
494.000000 -0.000002518098515445288068 -0.000001800549647738189587 0.000001898432935528193274 0.000005375343108721761123 0.000001656834370879822774 0.000000572124763318198975
496.000000 -0.000002401849620181343853 -0.000001726507433582991256 0.000001787833851547848558 0.000005096553500203558035 0.000001580814152816691227 0.000000549233562170024347
498.000000 -0.000002295817860231856310 -0.000001653161099083097033 0.000001699551160633533920 0.000004855767537230614496 0.000001509848542371279782 0.000000526152619977955767
500.000000 -0.000002171707720425302387 -0.000001558861520877276238 0.000001624795496263317196 0.000004620771341053201283 0.000001432357445413830379 0.000000497650410977020864
502.000000 -0.000002062319322953626256 -0.000001476231957111881336 0.000001554860324110397826 0.000004410548930160121197 0.000001364023729566688741 0.000000474821826484922887
504.000000 -0.000001972359523974096126 -0.000001421955808345166663 0.000001458870498893885774 0.000004181056833540069145 0.000001305882069063296369 0.000000461739613705467407
506.000000 -0.000001878582742158674654 -0.000001352602350221585119 0.000001395690163973268420 0.000003990856820531626513 0.000001235674726791714381 0.000000431583382591767753
508.000000 -0.000001791619900606623721 -0.000001287602619885689030 0.000001336805570426251690 0.000003815088640697767519 0.000001185420001347935022 0.000000414367170130204715
510.000000 -0.000001717820951702262915 -0.000001241425311641234332 0.000001264948929112428894 0.000003634324118025500467 0.000001128016124074277465 0.000000393881139149457885
510.580000 -0.000001692830767830700909 -0.000001223198093513175929 0.000001248202075781686026 0.000003585844268731406707 0.000001115864221124331413 0.000000391348594518090881
