0.000000 -0.000000000000000000000000 -0.000000000000000000000000 -0.000000000000000000000000 -0.000000000000000000000000 -0.000000000000000000000000 -0.000000000000000000000000
2.000000 -0.001040605263812461028089 -0.002389758058763953845610 -0.003620316861478900961197 -0.004220871692471589789464 -0.000840389357108155092557 -0.000713607175848634590377
4.000000 -0.001415679371381509512109 -0.003511989505105393358231 -0.005867202623721234563958 -0.007401652777956889764366 -0.000862706237973323315088 -0.000296749044275959866085
6.000000 -0.001239233035711767051679 -0.003751796883166609239413 -0.006934341568382496566458 -0.009402136515045355497078 -0.000874273266274699944502 0.000163767579458901156152
8.000000 -0.000939141478413603111863 -0.003843906468007258613734 -0.007845515924197498866532 -0.011355808931114848639443 -0.000865526562263548146156 0.000672118318410115417501
10.000000 -0.000867333865858983875212 -0.004478591004004669508254 -0.009593816914853375149574 -0.014369197465968494911714 -0.000841254145293539507856 0.001291746596855530360495
12.000000 -0.000932846783328858029059 -0.005809673812220590705113 -0.012811983891028718568483 -0.019566065254670389483849 -0.001135688294513111963602 0.001903006506697021852151
14.000000 -0.001133120610464015539862 -0.007886159403587866476015 -0.017665044311384877490090 -0.026999034355666223783388 -0.001447920266404324274659 0.002754160236307928808636
16.000000 -0.001951725719074030212033 -0.012001619609315341066780 -0.026026074368919630691588 -0.038377519215225502913214 -0.001962020075505685554745 0.003757250233835833248125
18.000000 -0.003535731752653392592073 -0.017511263217560770616421 -0.036077224607264306299736 -0.050734564785079767912368 -0.001861609900378163266060 0.005325127395284744852288
20.000000 -0.005486139595162127166605 -0.023796870765673567432730 -0.047135489805319716327681 -0.063743643077364714466526 -0.001698444519826952225222 0.007047640428565694198371
22.000000 -0.007445521234502735022365 -0.029863776505117824167090 -0.057518271817681501656416 -0.075808373537837842048859 -0.001723822385990066803282 0.008632455376148054360108
24.000000 -0.009100409814053531457057 -0.034758923831631018119825 -0.065568184584649941148982 -0.085103167197467424753832 -0.001662759780111028925370 0.010353544698803470933135
26.000000 -0.008535520061624642454423 -0.034080228611616074363422 -0.066050227937283670365254 -0.088176804559038035602470 -0.002374962630047003277894 0.011745983238278183413694
28.000000 -0.008619448938961424278027 -0.034841196533226766185454 -0.068343798195709848375401 -0.092544326803468135445030 -0.002616157470177181074145 0.013212145341523559224917
30.000000 -0.007793644585153546890111 -0.034501759805488627086412 -0.070803377194103150893412 -0.097762531013444856076156 -0.003449186909204659395867 0.012821059508074028263080
32.000000 -0.005626589788581575456161 -0.031075212049429139227197 -0.069270642858604097868991 -0.098978030298171662537676 -0.004874161614766838249158 0.011466279328653653998837
34.000000 -0.003439923900274145275591 -0.027448355278531295919908 -0.067025765168974238417121 -0.098885931356302733674646 -0.005768171359672641385075 0.010035796418114454123249
36.000000 -0.001231654711265050541544 -0.024411464995140002426366 -0.065146404603099575258973 -0.098549253755876434213157 -0.006818063315914162092479 0.007782096283454081019071
38.000000 0.001003236713047196172754 -0.021523169898746266626155 -0.062960375903229115479576 -0.097226735061059929576821 -0.008157039326475651677684 0.004457256299104942788569
40.000000 0.003200011912336276406060 -0.019139369242168000756488 -0.061340999220960153170967 -0.096137673391744157824768 -0.009559819805671086051513 0.000652013611254962668039
42.000000 0.005761984627007858336678 -0.016212262242068297551922 -0.058860737482231605122163 -0.094042141442352317204367 -0.011568050749280519434725 -0.004271393072686769862290
44.000000 0.008212652920363361017109 -0.013373159130819088982745 -0.056131906601806370871177 -0.091365754270502960721068 -0.013687878393309685712276 -0.009469790944645270491797
46.000000 0.010670855554520375721439 -0.009456630519159301209720 -0.050982760137137241029937 -0.084871297587921348815065 -0.014248239117910465462158 -0.013140976731683693193298
48.000000 0.013659464915237647456014 -0.004685672317894073145295 -0.044080255802075203608315 -0.076009819489406452164282 -0.014755031003539835141036 -0.016593432556041121106460
50.000000 0.016990290254410310433197 0.000888000329050481532721 -0.036102136762588318830147 -0.066454665798387005382075 -0.015751229246374509607165 -0.020440522331162919167369
52.000000 0.020119178444697405350183 0.005780106893262368719655 -0.029113638704213060104387 -0.058119966521893003108534 -0.017131126265476727399406 -0.024267554583965945252944
54.000000 0.022524675539390796863426 0.010389714400093539442560 -0.021367479905042695287332 -0.047813724412017873099945 -0.017981263896892120401905 -0.027389674290209910928473
56.000000 0.025202387142136309372553 0.015252186630145287554727 -0.014008999314780478870346 -0.039070858565081689750542 -0.018353197073822900831086 -0.029202992434501431895377
58.000000 0.028084379853510241242809 0.020133702636465383717379 -0.007074729455983722221923 -0.031227719197787776744812 -0.018575938431538267098242 -0.030339216106369113618024
60.000000 0.030328137662277890318485 0.024824971425950338732580 -0.000204474967765011609059 -0.023640601747404673543818 -0.017668808040017781879616 -0.029214108195924980149183
62.000000 0.031167355081782897180398 0.028392202251090067205430 0.005930051525184801448909 -0.016463861556416149040105 -0.015820896986601384881510 -0.026625091031129290153334
64.000000 0.031485382206733539267596 0.030556090671024240673637 0.009808329857617670635705 -0.011845701859735513830629 -0.013883356806399670471674 -0.024209779658644986488625
66.000000 0.031044738482304701926440 0.030632781212721400809773 0.010842523357750821766388 -0.010086897195128148932430 -0.013125189255335827781535 -0.023905405207783968213331
68.000000 0.031253175509389885533551 0.031503722180047537271275 0.012599551885389763741796 -0.007860901415146830106817 -0.012901997390083200234479 -0.024146156962559717912287
70.000000 0.030927850828126803028884 0.031473962705303594467043 0.013428563433303404572872 -0.006416426618582213477204 -0.013102224785374694954188 -0.025017867912988961398568
72.000000 0.029160250423915099610150 0.029647278119339419422129 0.012557928934081693389535 -0.006301040246196641138321 -0.012810564353681301238974 -0.025056860679332677160902
74.000000 0.028224894560507484547740 0.028503586294371389270319 0.012161720388068720383190 -0.005865248128649833830872 -0.012535628977794560645620 -0.025342118869332512509640
76.000000 0.028077456719942304325111 0.027719042562084413028334 0.011878661203470437107699 -0.005464563939120614145806 -0.012680468816059964690113 -0.026082738000758939195256
78.000000 0.027205199009154606981653 0.025987754901918697775232 0.010866020836933450166573 -0.005477204100580558045197 -0.013238550872775244407475 -0.026878304474209333690959
80.000000 0.025679878292337608713947 0.023930667895908936532168 0.010355854330860591802632 -0.004654527575048903777211 -0.013609083945766339493466 -0.026639108992115887591945
82.000000 0.023881627410879281009359 0.022113070949759665306811 0.010417335266090380421766 -0.003110366953423507937332 -0.012965312257825895719821 -0.025088789755998288505401
84.000000 0.021643703498185846989532 0.019910169779126293126970 0.009915021459871053988167 -0.002070558047150504107914 -0.011952492451661132430440 -0.023231876174159137027342
86.000000 0.018445894423133962769512 0.016702880527262584098303 0.008428219435429665229442 -0.001844562042144451017786 -0.010777672180961579348479 -0.021167705728895779004883
88.000000 0.014313037774851992273151 0.012441373044140677586733 0.006056471939290973896530 -0.002104686718739832117231 -0.009311556864167055969084 -0.018652763184299724075199
90.000000 0.009352382566546749848024 0.007259884453842417074976 0.002779903756658730264867 -0.003126493275894372605994 -0.007602040230969135323202 -0.016028348079273595921945
92.000000 0.005906731143765824899872 0.003912838773944113737735 0.000755319393741466470205 -0.003473572007832274183281 -0.005840133085343259325417 -0.013348211852725751572213
94.000000 0.002818541379728348519884 0.001118813209510953476933 -0.000893337271815403425809 -0.003634353128000564030209 -0.003805946853737317975286 -0.010542083031198317202848
96.000000 0.000572763234275747135614 -0.000779940758391680418610 -0.001870550406731171866684 -0.003423543109367869173576 -0.002518541604228234295770 -0.008310864685086119182933
98.000000 -0.000556477790246391861712 -0.001526576558250043388898 -0.001907127327129285680046 -0.002572480545946999232892 -0.001606147105450098132653 -0.006162799283642141079387
100.000000 -0.000884922700611087166556 -0.001390488348967395615743 -0.001248928011692215182121 -0.001274213663392840178643 -0.000888342487994333825443 -0.004136504839323256778327
102.000000 -0.001103113215691496964976 -0.001192436771666364114450 -0.000650079530251791389873 -0.000165185320846743065705 -0.000078832711592073954942 -0.002232108772220444282280
104.000000 -0.000965211348142854495824 -0.000800367037004603445148 -0.000031375963341054879962 0.000699833084136834075555 0.000196203607546400631044 -0.001272255817136476235482
106.000000 -0.000553098276928614285969 -0.000195470890910423746164 0.000685294388148482242970 0.001452410598371544486751 0.000320117795673315345874 -0.000713782823232614609295
108.000000 -0.000226519551124705799264 0.000285094985150650948296 0.001232163436861103593747 0.001993789639116095701449 0.000349016049657389535680 -0.000295388034370421546145
110.000000 -0.000056434487773620514576 0.000503068012511137920353 0.001519333655664597366661 0.002313346674624306917312 0.000210365877080301327167 -0.000169701075655239770482
112.000000 -0.000112162826769627899147 0.000462419287692868597600 0.001542603042906751749028 0.002397486596266747670148 0.000210250762854156134172 -0.000091301333859719626903
114.000000 -0.000216767271202527049469 0.000367269259962999569235 0.001506236508726962889174 0.002425634911513886368684 0.000264835716164741816203 -0.000006441317153149487259
116.000000 -0.000305465307442028151646 0.000290237362774623973080 0.001482898454735450321715 0.002460929272021707830964 0.000314184886696375895773 0.000078392640049472018041
118.000000 -0.000380211257132153062754 0.000228308330399708443725 0.001469345346862079362826 0.002499925615254977671192 0.000358756066562607319435 0.000159555535156288369686
120.000000 -0.000442291021542241390586 0.000179493784406129999612 0.001463678053669108377818 0.002540758738625783965531 0.000398263179930022099412 0.000234655534630307644438
122.000000 -0.000493239359872813974348 0.000141756724033244237192 0.001464192052733784363966 0.002582064292444816427236 0.000432696677022261486957 0.000302345831220746726238
124.000000 -0.000534721598702525427807 0.000113092055418459176523 0.001469360117372940860783 0.002622854667797846952432 0.000462331996185091464568 0.000362094480068012502996
126.000000 -0.000568355061700632005484 0.000091684378718720214497 0.001477916726279513218167 0.002662501382018052017986 0.000487622218959587279061 0.000413961935065931168135
128.000000 -0.000595603802159278342132 0.000075983493012917065462 0.001488878571431542178344 0.002700680303635129200085 0.000509102009545147325166 0.000458402011386905043015
130.000000 -0.000617735736072385992722 0.000064715425980695751420 0.001501522341268576908949 0.002737305482757275768013 0.000527320974796576967189 0.000496098621494441786167
132.000000 -0.000635814604184894776803 0.000056864058133473359684 0.001515342192170383590205 0.002772458372663718240841 0.000542805379891888499858 0.000527845711515949117185
134.000000 -0.000650711669661167878623 0.000051638761496519374589 0.001530005682025243002667 0.002806329330279277653459 0.000556034214653988874931 0.000554459706355471277500
136.000000 -0.000663135122817090833826 0.000048425601439574167189 0.001545302247281192184469 0.002839165673409730587112 0.000567430159900819534348 0.000576724257651579897375
138.000000 -0.000673651379705454190529 0.000046758947767144478237 0.001561114446032452239901 0.002871241272337213181615 0.000577357577661837657011 0.000595360125247319424933
140.000000 -0.000682708769145111719553 0.000046290388067841525387 0.001577391323367604864664 0.002902835814776016064298 0.000586126234229884259495 0.000611008264290502584384
142.000000 -0.000690666097016025899887 0.000046751790551001696085 0.001594117310436418471706 0.002934213834768624202393 0.000593995245386494158564 0.000624226241476284900676
144.000000 -0.000697801281030518039290 0.000047950809210628999267 0.001611311787061582177435 0.002965626034813938043111 0.000601178387032330510502 0.000635487597535361803044
146.000000 -0.000704336147942459457789 0.000049741719169506746470 0.001629008776643486216054 0.002997300912005565736579 0.000607852872791896786664 0.000645191921109021450549
148.000000 -0.000710441165628945803766 0.000052020591494141582719 0.001647254146458285075511 0.003029444723788049954188 0.000614162822588395422400 0.000653670579491263644203
150.000000 -0.000716253696204925661105 0.000054709629985314147023 0.001666098526845667974691 0.003062243580166300067208 0.000620226066517855331890 0.000661196117926996364093
152.000000 -0.000721879687758518570791 0.000057756537736892409063 0.001685598082955322906881 0.003095866395109272192071 0.000626139207890461521946 0.000667992035270018199265
154.000000 -0.000727403330320908485425 0.000061123188546706883821 0.001705809018646948539699 0.003130465668287529725639 0.000631981243024461658217 0.000674239833778040838566
156.000000 -0.000732890923913390602423 0.000064785459582114928953 0.001726789705704241846551 0.003166182312658680220174 0.000637814574055727326850 0.000680082395386396297045
158.000000 -0.000738397113781975823407 0.000068726686428514824042 0.001748597733847290398856 0.003203147100381344234560 0.000643693517014357736127 0.000685639780837634391433
160.000000 -0.000743965433005182676975 0.000072939462322447659983 0.001771292932008617466641 0.003241484105959232912830 0.000649662483753141997353 0.000691006854150967163471
162.000000 -0.000749631759025975921013 0.000077421208594555951388 0.001794935415833062968688 0.003281312505669298305172 0.000655758642710427296953 0.000696259739352337887058
164.000000 -0.000755426255369978975028 0.000082174413275573474818 0.001819588069447515901733 0.003322750318996987861642 0.000662014395088800808135 0.000701460494915295156883
166.000000 -0.000761373961828839640291 0.000087205221766541887013 0.001845314958612196808846 0.003365914374019970609075 0.000668457721603177507444 0.000706658575097956868916
168.000000 -0.000767496984044543223424 0.000092523598224086094056 0.001872183584587130576390 0.003410922595642615351430 0.000675114549623523439031 0.000711896448543937942696
170.000000 -0.000773816719428183563342 0.000098139041627202637801 0.001900262026609469186850 0.003457894788499836155604 0.000682007733854323003504 0.000717206615577547883233
172.000000 -0.000780349437593907458745 0.000104068547351468301799 0.001929625523466621311516 0.003506955975703109421038 0.000689158192961597700077 0.000722616712685211770584
174.000000 -0.000787113351211420932130 0.000110327341543627340079 0.001960350752481404036642 0.003558235519705702388366 0.000696588340438295764573 0.000728152292760187651137
176.000000 -0.000794124696898731107474 0.000116934324813043556603 0.001992519788873422636327 0.003611869173868853533094 0.000704317754571936170162 0.000733832386050815572813
178.000000 -0.000801399299886771613460 0.000123909936947814454779 0.002026219496246204395534 0.003667999829732880839178 0.000712365781584658498693 0.000739674929319436786149
180.000000 -0.000808953959470063896885 0.000131277020617968551673 0.002061543723883684647857 0.003726780706167267739892 0.000720755096135683621938 0.000745697597095117841771
182.000000 -0.000816803933489316721928 0.000139061136734191435850 0.002098591618564324672719 0.003788372531476452177712 0.000729505310265834484330 0.000751913530057041223399
184.000000 -0.000824965068442580257320 0.000147290686962298468868 0.002137470351690771378644 0.003852947999879067358941 0.000738638708618132933462 0.000758336971751107178502
186.000000 -0.000833455536635422170044 0.000155994103674598756475 0.002178293239031166370762 0.003920691034037506773891 0.000748178663406226605176 0.000764982283389704811709
188.000000 -0.000842292661854398888241 0.000165203393736751804124 0.002221181334831308969852 0.003991796927406722310383 0.000758147696936167661899 0.000771861261208356690296
190.000000 -0.000851495133018550132316 0.000174954332653836150532 0.002266266913152151403488 0.004066477774013963798760 0.000768572734346972580473 0.000778987353472250141327
192.000000 -0.000861082232636131055317 0.000185284424155913757682 0.002313689799954091966955 0.004144957780267051819512 0.000779479028007597782648 0.000786372461657012123554
194.000000 -0.000871074602773136527807 0.000196234504375161718020 0.002363601557539537437874 0.004227480792447012997171 0.000790896587054983534956 0.000794031033385157866342
196.000000 -0.000881493907522890723927 0.000207848625523957778599 0.002416164292101951292790 0.004314306286895575395790 0.000802854740894685644029 0.000801975668398433190996
198.000000 -0.000892363863616364586320 0.000220173917683026188798 0.002471552347479284619108 0.004405713978968116978363 0.000815385661697043797116 0.000810220200029154865792
200.000000 -0.000903708644034315381442 0.000233263154032011178112 0.002529955286245965263153 0.004502005991171995069600 0.000828524556717824371688 0.000818779601401056723528
202.000000 -0.000915555084845737178131 0.000247170332749578332103 0.002591573292825133725814 0.004603503862007291176639 0.000842308343150928950059 0.000827669369671861217090
204.000000 -0.000927930906019941675704 0.000261956498182740920352 0.002656625779918413837732 0.004710557122222644096943 0.000856776281920568118927 0.000836905083877673996139
206.000000 -0.000940866867409571741923 0.000277685080159258742410 0.002725346096920162886068 0.004823539708070864913403 0.000871970892780927326303 0.000846503962242796804787
208.000000 -0.000954394880982483914678 0.000294425950822925453984 0.002797986230966981353874 0.004942853827206285764750 0.000887938096643356520460 0.000856484703434355165545
210.000000 -0.000968550131519481708429 0.000312253036612090766836 0.002874816669846816993145 0.005068932055219584932593 0.000904726577390010597290 0.000866866420117716539144
212.000000 -0.000983370527719221523832 0.000331245367864779088375 0.002956127459453111207266 0.005202238526966157863840 0.000922388007272514518983 0.000877669572794662479313
214.000000 -0.000998896012450764796825 0.000351488943196256401619 0.003042231312450815929743 0.005343272688103710768570 0.000940979788030487968205 0.000888918723849559111461
216.000000 -0.001015170192695692219856 0.000373073572456536354299 0.003133460474511657635477 0.005492566575555501637296 0.000960559764871356290897 0.000900635621640046512247
218.000000 -0.001032241913300176519575 0.000396094504351924962295 0.003230171078382920377137 0.005650691755281227537933 0.000981194513704243325911 0.000912849222506623126337
220.000000 -0.001050162108442213209150 0.000420653904132747130922 0.003332744195433799249545 0.005818259366968486084870 0.001002952952700054143134 0.000925589212816078010446
222.000000 -0.001068988260127090106702 0.000446856617354874610833 0.003441583116718179621157 0.005995919204256717170709 0.001025908909055763462356 0.000938887383987113710061
224.000000 -0.001088781883004698910339 0.000474814218477725058423 0.003557117842274195099184 0.006184364090908921370027 0.001050141808145070056180 0.000952780271385492280242
226.000000 -0.001109610989111773629232 0.000504641545931682031396 0.003679801440159534160063 0.006384326410764406059539 0.001075736679004583125005 0.000967309470926467165376
228.000000 -0.001131548463127634782110 0.000536457629786909204542 0.003810111583991336765831 0.006596580539257095032735 0.001102783243373148865801 0.000982519211343065501305
230.000000 -0.001154678679750272907514 0.000570379388219815109014 0.003948545957256293682802 0.006821940205675624396831 0.001131379476695759753874 0.000998462562560070016060
232.000000 -0.001179090871395924644202 0.000606528529203123546905 0.004095627113813365971495 0.007061260688741508029231 0.001161628104501926045736 0.001015197846297492172488
234.000000 -0.001204886058926845238820 0.000645022380040093773999 0.004251895210821849020733 0.007315435150256302532235 0.001193640294598315946401 0.001032792447262282590353
236.000000 -0.001232177521706780088870 0.000685975501823247037041 0.004417910467565648244270 0.007585397315852256475144 0.001227534324656841518281 0.001051322328984788129908
238.000000 -0.001261088562653135724048 0.000729501745299246493089 0.004594256485938343938236 0.007872127099960601892548 0.001263437242560700541835 0.001070872528257207564883
240.000000 -0.001291756804853931355978 0.000775713112746910038800 0.004781545395609548484983 0.008176661058488288863488 0.001301485640217895202800 0.001091539223064651913456
242.000000 -0.001324333147496921598077 0.000824726045546891688674 0.004980430416944879763730 0.008500110971952603428070 0.001341829179592198212703 0.001113428828217467771861
244.000000 -0.001358980499698094835184 0.000876670077258145160476 0.005191626054522153685400 0.008843693523015791826958 0.001384628754765995523740 0.001136653349781039041080
246.000000 -0.001395874913994776204268 0.000931699647920156029217 0.005415938048832691711909 0.009208774778879378827834 0.001430062903360950236561 0.001161330714061967021855
248.000000 -0.001435197228708057085381 0.000990019916995858338324 0.005654311567355215298325 0.009596934667757649195519 0.001478326902335968390245 0.001187576105326952537883
250.000000 -0.001477132052120748179763 0.001051909764391600540789 0.005907884423977361430802 0.010010042348917204402259 0.001529637503940080344236 0.001215495535480427173949
252.000000 -0.001521857198272470214351 0.001117757769321305917620 0.006178055064737291053600 0.010450344932430601779805 0.001584232522396086979832 0.001245172443309799795511
254.000000 -0.001569536549160676199358 0.001188094554907334057456 0.006466549358514830925238 0.010920557872713695587996 0.001642374087163115748203 0.001276658624483671764654
256.000000 -0.001620311853810165510920 0.001263621810705626473739 0.006775478458096092018725 0.011423940310874939121910 0.001704347290954944102101 0.001309959814921960721476
258.000000 -0.001674298751956958567974 0.001345224789743608082015 0.007107366942948328304708 0.011964331728084455497285 0.001770459279272829089535 0.001345028866388176327917
260.000000 -0.001731587062363351171845 0.001433962446365672068968 0.007465138146047219959434 0.012546132025858329137047 0.001841036740221574027898 0.001381764633926460322452
262.000000 -0.001792255891228477279048 0.001531013020977339562229 0.007852023940913974847655 0.013174187222101728031443 0.001916421133121585769835 0.001420021307991112691910
264.000000 -0.001856399437807733539263 0.001637575114744071504147 0.008271388454322591010648 0.013853561027647518302808 0.001996965579460783894727 0.001459640457465176746621
266.000000 -0.001924171617822202813575 0.001754710932671055441390 0.008726451613901096276971 0.014589182669947306850156 0.002083031130981601811852 0.001500501041645560052276
268.000000 -0.001995847490133790137073 0.001883144925107544396040 0.009219933656625423773479 0.015385395998497940206473 0.002174984254157158892334 0.001542592429586376202161
270.000000 -0.002071899393162805573521 0.002023035774472957404324 0.009753657950437876617000 0.016245460630504162530263 0.002273201879675477727477 0.001586110597736220930234
272.000000 -0.002153068996049047664071 0.002173772920968723189328 0.010328192225503698975508 0.017171098293453260913433 0.002378078772528497818878 0.001631561658956046535068
274.000000 -0.002240425846021430311000 0.002333847790302564714771 0.010942624441137900268006 0.018162208377468902487095 0.002490040533228138515398 0.001679857233680464613512
276.000000 -0.002335383543201372674725 0.002500871174138706055923 0.011594582492245656540897 0.019216875354541394088637 0.002609559160442119669920 0.001732378814286281328017
278.000000 -0.002439657294044519225684 0.002671768731597770358405 0.012280542399273404463589 0.020331714538171192369065 0.002737158398404710216156 0.001790981114212768232630
280.000000 -0.002555166149835435933368 0.002843139112167365843004 0.012996402418490786076499 0.021502543046632068696189 0.002873419796126368708916 0.001857922392998431456237
282.000000 -0.002683883677424814782897 0.003011744023194943154637 0.013738274241304145040221 0.022725329687829254332598 0.003018978041417924498141 0.001935701800658357714033
284.000000 -0.002827656207314287704901 0.003175071201716586806463 0.014503417220061903813999 0.023997361066083279512728 0.003174511244171551553606 0.002026808678798921320441
286.000000 -0.002988015990398163769515 0.003331912385487629472275 0.015291258891902109740002 0.025318586996681203410420 0.003340733883092351658856 0.002133399651528159780833
288.000000 -0.003166007678643427240839 0.003482917597448488989526 0.016104471243670225033551 0.026693127242710962959693 0.003518398682744242923770 0.002256939065278971805195
290.000000 -0.003362041674991449961146 0.003631093196334271924752 0.016950050490095808913837 0.028130857413573438080556 0.003708308717703941419924 0.002397830948965330027933
292.000000 -0.003575769230440927100301 0.003782196314245023054113 0.017840261282075012272408 0.029648828651831018315965 0.003911319118322346619077 0.002555093858108821013725
294.000000 -0.003805979840990766742415 0.003944813491943857317046 0.018792900946915137849746 0.031271653991143351369875 0.004128257467214577550174 0.002726149175065202111962
296.000000 -0.004050551448894019503089 0.004129500416016748318149 0.019829389067693676401705 0.033028596439457907907311 0.004359590952055483921435 0.002906890295092271446487
298.000000 -0.004306710631852245924067 0.004345444098780773881097 0.020967424207445378714354 0.034942756561475961374352 0.004604617348070137901328 0.003092410548247425186585
300.000000 -0.004572423153398531663061 0.004592226160158286406288 0.022203966344124713427899 0.037007221872455961508841 0.004860309820927835415538 0.003279055999581361596773
302.000000 -0.004849930518413685803791 0.004846807671513931985163 0.023490889793541275265554 0.039153523226714129212844 0.005120899651551111611547 0.003468002094921724971083
304.000000 -0.005149835926877526295908 0.005055557224519166732712 0.024723713373400419551773 0.041240696527837544804740 0.005379337688415549052767 0.003668728111217214264000
306.000000 -0.005490723822664776883340 0.005145418509544774990361 0.025766789829505372388940 0.043091284327658088693092 0.005629706053500343858331 0.003900149591238645605668
308.000000 -0.005892864607605730747908 0.005049933042455776247004 0.026500921815601256870121 0.044550398870291156583345 0.005868672777951388329354 0.004189110770929106372651
310.000000 -0.006371690494422182181322 0.004728187247548293510591 0.026851632747647142390734 0.045516421234670451090309 0.006096225811627188455322 0.004566545826981138062051
312.000000 -0.006934462678140677037442 0.004168095288399682740721 0.026785777913888985518609 0.045932747946844744435513 0.006315434239426515050653 0.005060605322831662582217
314.000000 -0.007578170939516674919911 0.003382430285894407178543 0.026298329799490722386013 0.045770605755183622898041 0.006529084874449826020326 0.005686906702932250853855
316.000000 -0.008288236392472780877938 0.002403449419266825027447 0.025406129451266367541562 0.045025140218794772184463 0.006734727570741229699114 0.006440806540609831515320
318.000000 -0.009040733734458754680685 0.001275030723419063715535 0.024144742927569753931927 0.043717997690274811029010 0.006923317999158033232698 0.007298025416794456238234
320.000000 -0.009808691756182217127980 0.000042089444956426653641 0.022559735508222933386691 0.041891428420369809793034 0.007082910263867581851516 0.008222185016442026470052
322.000000 -0.010568083198404430722572 -0.001256982090708735032292 0.020698225876668127631852 0.039599802512736766157975 0.007203115700352706769760 0.009172095189906656273471
324.000000 -0.011300449152142564776535 -0.002591053644181821446341 0.018609740044506346140496 0.036912006409839333287426 0.007277988964616670386487 0.010106888169380276801257
326.000000 -0.011993267908066658489208 -0.003934497833313799382282 0.016349719939784360112078 0.033916787341619979156970 0.007307919632480657651241 0.010990490846137524957871
328.000000 -0.012638297273131114673017 -0.005266035075299468556920 0.013977567409969459191754 0.030717614868924842524978 0.007298255381676100467248 0.011792699324549229741854
330.000000 -0.013227719743895898635300 -0.006566529448698958833230 0.011553163043939673054750 0.027421675477555411404307 0.007253559913013202936627 0.012484792978566345775238
332.000000 -0.013750303932838931278426 -0.007815247246323124216683 0.009136222787949489776427 0.024131213532444475977634 0.007172418977553272553815 0.013035112962804100075753
334.000000 -0.014189514240315273183035 -0.008986369345364642394203 0.006785918429048137454074 0.020935464593505103553239 0.007047236845691268875003 0.013411036356238918015871
336.000000 -0.014523742427822377426549 -0.010046009243655958098618 0.004561908415036870258208 0.017907833975630095546538 0.006869377554247594296066 0.013588546227272440408695
338.000000 -0.014728920434542847398007 -0.010950471630469110762007 0.002529030731752284020392 0.015114420228259857134634 0.006637691147838142152748 0.013567349928867331390614
340.000000 -0.014785060429685687247159 -0.011652871061670160707235 0.000754370946015466350976 0.012618744936443070103760 0.006365322273266612110310 0.013381961776327104540751
342.000000 -0.014684563774987642939540 -0.012119585125785994894621 -0.000711176950102470760602 0.010468241111282044000785 0.006078396425035046887753 0.013093343544512119763779
344.000000 -0.014434808131644927958748 -0.012342775400931208645838 -0.001851398845970894007154 0.008675609940758435487118 0.005805321866778124541286 0.012762096008110250869305
346.000000 -0.014052557969007057128707 -0.012337576311637997797388 -0.002684043602062736576935 0.007217839481316688093893 0.005564181853385339465712 0.012424514918445659153456
348.000000 -0.013557163958471639408909 -0.012130853596236333344360 -0.003246000595385881842825 0.006051078035904160386249 0.005357686319033268945722 0.012088223495014011055204
350.000000 -0.012967518196707357794328 -0.011752562937973705034511 -0.003580074988605671214292 0.005125092235261708914495 0.005177295444217262961051 0.011743191753068206797939
352.000000 -0.012300157465422147801126 -0.011231362781916770857138 -0.003728845392844264659826 0.004390009099665112372868 0.005010072748782627011233 0.011373474001238784852896
354.000000 -0.011564734976008291672533 -0.010590317325227697337064 -0.003731122337562499131219 0.003799025787309277812920 0.004841872297980810702089 0.010961402181780533632294
356.000000 -0.010759456802254062368629 -0.009842297061956457177034 -0.003616764417814633762044 0.003312958846547215969319 0.004656526020257337715458 0.010487355099430531804594
358.000000 -0.009874944201374042523911 -0.008991933645058673707506 -0.003403260051371102216239 0.002906329200183255852957 0.004436357165708021237094 0.009933498511964870478219
360.000000 -0.008904436649599988332082 -0.008043379323735224198377 -0.003097534279884650489784 0.002569709372684191115571 0.004166078507802469486909 0.009290549211581653615832
362.000000 -0.007849870323639792160653 -0.007005586257080934076136 -0.002701757574894587607406 0.002304692401458326329877 0.003836428010445043067927 0.008559760602319560138240
364.000000 -0.006725163227499802130749 -0.005897390672886567396238 -0.002223149345823351944601 0.002112824259062446533713 0.003445893835784796192107 0.007750748769181352304525
366.000000 -0.005561988690415184573290 -0.004755936163281689055271 -0.001685116121471454163697 0.001984710326743653607817 0.003002108746635181492357 0.006880191143343988499637
368.000000 -0.004411665255899335086331 -0.003638986781826609832879 -0.001130490067713038138467 0.001896777370342978387766 0.002522997250923530131173 0.005972123682693528633203
370.000000 -0.003336350970695326281779 -0.002613896114580769453051 -0.000612621259883846256203 0.001817065695648560977316 0.002035631865916986537463 0.005056723418343607098779
372.000000 -0.002394539752310098114363 -0.001740795002108850046338 -0.000181338733015609166518 0.001714600284535035224984 0.001571702930307916764793 0.004166790994524828019296
374.000000 -0.001627363038773280970103 -0.001058106749699243937998 0.000129901821690980287310 0.001568802953101617594575 0.001160299100469940362587 0.003333950113629589265957
376.000000 -0.001048940980454348727291 -0.000573396235630478016791 0.000312957407708811257037 0.001376849348743759216332 0.000821002508306872542769 0.002586217314796227743218
378.000000 -0.000645878690853718970613 -0.000264649363890587902785 0.000384810647137420280915 0.001153869060177898113115 0.000560515696886436506560 0.001945324436816450210108
380.000000 -0.000385834666669057136691 -0.000091388336742485512662 0.000378080124373192285724 0.000924910920288945993979 0.000373356445101857262105 0.001422546420621326407688
382.000000 -0.000228889651943154108157 -0.000008146449317752413978 0.000328802441613191165793 0.000714360743260805371516 0.000245940556958755855363 0.001016271194291214208238
384.000000 -0.000138074050370792355408 0.000024139599379628534501 0.000266141966658353147385 0.000537946956877009244309 0.000162065105735026122966 0.000713570628157825953032
386.000000 -0.000086287277461381814490 0.000031701162024586767804 0.000207096866779281254655 0.000400109279772409016495 0.000107536361960632617738 0.000495260020170908642732
388.000000 -0.000057094768561240127783 0.000028541793332362737628 0.000157932228644581571734 0.000297043212840717146123 0.000072270124011059868555 0.000341474240331547554232
390.000000 -0.000041301685346295099132 0.000021139556564506011970 0.000119100391922034303947 0.000221751048157541551503 0.000049768212872527610804 0.000235068909952891309627
392.000000 -0.000033500769636626349414 0.000012572989127341891078 0.000089235038406784366965 0.000167509641153205598735 0.000035794789500527267345 0.000162702265608296345149
394.000000 -0.000030155114287890764593 0.000004549904964543220923 0.000066833966088672360113 0.000128952376929968080908 0.000027377332634553994302 0.000114338806225655980849
396.000000 -0.000028895874216959033823 -0.000001960218619882199829 0.000050573954423184946407 0.000101978148424843249029 0.000022378255376247260371 0.000082532397555962503863
398.000000 -0.000028362919669329288337 -0.000006687918753985247235 0.000039127844466007382046 0.000083326494397100429228 0.000019345610764898853141 0.000061847595270920249343
400.000000 -0.000027916477645062684238 -0.000009791944578312756681 0.000031273236266116226378 0.000070494204175676358857 0.000017401166076110832266 0.000048457671991767143304
402.000000 -0.000027330808637856579866 -0.000011634476634111405054 0.000025935713516059849689 0.000061573881987882171369 0.000016047211383378039872 0.000039744015682101333149
404.000000 -0.000026567357962841932670 -0.000012576969509852948059 0.000022289525056250488019 0.000055214344342786262753 0.000015011592476830777331 0.000033969618677403815206
406.000000 -0.000025681379869652823551 -0.000012933412780008346561 0.000019745221996848670289 0.000050508902984397844595 0.000014164938390672980625 0.000030040036515464975305
408.000000 -0.000024728807619793271016 -0.000012931380823287032334 0.000017895145267938297333 0.000046853576042156446055 0.000013426835686361907523 0.000027245266369648253087
410.000000 -0.000023744704171574459279 -0.000012715002396920552051 0.000016480417401659129404 0.000043869448852352133008 0.000012761643047526687533 0.000025164986480474061173
412.000000 -0.000022782939693342239325 -0.000012404509087963139165 0.000015321577408284432157 0.000041315478085764702459 0.000012161630990064757922 0.000023544454863624451229
414.000000 -0.000021847860472975403587 -0.000012039208183230790648 0.000014336404886540076478 0.000039055113796713091954 0.000011604053493366741717 0.000022207137730706508297
416.000000 -0.000020937041414180678183 -0.000011645159074503208188 0.000013469594272544525444 0.000037008192737154383843 0.000011075664275335534955 0.000021046236056553012259
418.000000 -0.000020063348783239520875 -0.000011248517258153101724 0.000012680922388118627287 0.000035113998606791341185 0.000010575206163592500819 0.000020010799607122247887
420.000000 -0.000019221168401246849884 -0.000010855946138997110220 0.000011950354877744951578 0.000033344859639029052895 0.000010094419187599135740 0.000019055394999790667865
422.000000 -0.000018409003641128291850 -0.000010460786739024648803 0.000011282639804254353992 0.000031696593654488119636 0.000009640323111558045136 0.000018177216126162050588
424.000000 -0.000017614258029272872688 -0.000010061187778946130552 0.000010665666345399733064 0.000030141555580201763014 0.000009200780532060029399 0.000017345768133085557455
426.000000 -0.000016850552127898474694 -0.000009662058311914594272 0.000010104099414143518035 0.000028689849773156171885 0.000008787387666196521673 0.000016566043814424690660
428.000000 -0.000016111475154352643643 -0.000009267705774004913842 0.000009588419487455385697 0.000027324837522052667710 0.000008388522705230251416 0.000015822683667128875510
430.000000 -0.000015404612966382048801 -0.000008889411814605529288 0.000009091372572533447724 0.000026013209596711063727 0.000008020775621722902714 0.000015130498915973305868
432.000000 -0.000014715263561443303814 -0.000008510956962781480079 0.000008633486038515919271 0.000024776606789025795583 0.000007660604183166312808 0.000014459631972873943133
434.000000 -0.000014064708962783809029 -0.000008156964167168170908 0.000008194085762392420042 0.000023597841396253706973 0.000007319466434991080188 0.000013825579714267118749
436.000000 -0.000013436909654411596730 -0.000007810574258594411962 0.000007777632522370213431 0.000022467457538312443724 0.000006994821551946229259 0.000013217901556333703280
438.000000 -0.000012831992703976146628 -0.000007466862970507909504 0.000007391588114975802671 0.000021398248634837684648 0.000006687793980828227464 0.000012635491294790052568
440.000000 -0.000012246041148392916475 -0.000007130337441097504421 0.000007026904477288311008 0.000020377027961276643494 0.000006383624580416769830 0.000012071960857009753150
442.000000 -0.000011676950437017862084 -0.000006801757448003804502 0.000006679500419201641375 0.000019397139531574273622 0.000006094449037367078188 0.000011523924604090298582
444.000000 -0.000011123035181136654886 -0.000006480338182001394469 0.000006349132700604482889 0.000018459071668825947904 0.000005823256259447923353 0.000011011098942103935276
446.000000 -0.000010596701502405496122 -0.000006182957890914760280 0.000006019291524890079451 0.000017545473122157630814 0.000005549834612102659950 0.000010502155113850478806
448.000000 -0.000010072992026416934639 -0.000005868265527866375994 0.000005743415321162431196 0.000016711194778502100474 0.000005283299827328084867 0.000010013287721124256502
450.000000 -0.000009566291488799671773 -0.000005561470925876250836 0.000005483744951764722323 0.000015914947271359609459 0.000005016744929485988966 0.000009527697891597610897
452.000000 -0.000009070871106250683481 -0.000005258570550287699016 0.000005238818644641271711 0.000015148217322907223131 0.000004763049519217188274 0.000009057988710681739815
454.000000 -0.000008605584266033118696 -0.000004973001375164054274 0.000005005142692237112489 0.000014418761536555685100 0.000004521232816632731538 0.000008609348852439990907
456.000000 -0.000008170124607924999718 -0.000004709582914813091747 0.000004778257674907480652 0.000013724872326790628460 0.000004297131823273893862 0.000008182938444582863857
458.000000 -0.000007772188532360692256 -0.000004489223353366953784 0.000004534247897023996584 0.000013045981905584841536 0.000004084260657656120952 0.000007786440480955241395
460.000000 -0.000007392464056373645720 -0.000004273766594027366158 0.000004305877147464083358 0.000012398723454989431185 0.000003877328094977452913 0.000007397509459621911509
462.000000 -0.000007041844538388087264 -0.000004081798321754994962 0.000004077225092045907146 0.000011778974965901074426 0.000003696589455159560120 0.000007039969406433706833
464.000000 -0.000006701713728501149973 -0.000003882889234925897046 0.000003876881622393866646 0.000011198297714860953054 0.000003508852309627775175 0.000006687949020394624499
466.000000 -0.000006382335073131259966 -0.000003705380186207030142 0.000003681134511186716701 0.000010653876002726801441 0.000003339562110382436810 0.000006354184742252836795
468.000000 -0.000006085937824770181252 -0.000003550561730584195474 0.000003476637801368436143 0.000010119386085143650299 0.000003180656209695866114 0.000006048027973625239156
470.000000 -0.000005793820502402014917 -0.000003380119357577210031 0.000003304073882098300469 0.000009621072597336787608 0.000003029014856782914911 0.000005762261373673756516
472.000000 -0.000005513773637759827965 -0.000003214166096271525637 0.000003143429821703148219 0.000009148988654201091250 0.000002883807973631042344 0.000005481957165258484526
474.000000 -0.000005249340293321391641 -0.000003059148861886026709 0.000002993952852963017713 0.000008711794591352432340 0.000002754215640702519189 0.000005222080003617117643
476.000000 -0.000004997745746601562113 -0.000002908449522486799404 0.000002860536488818725724 0.000008306892044621715806 0.000002619632715443744958 0.000004965253894349984232
478.000000 -0.000004753474719886635741 -0.000002757951799976011353 0.000002734642855951867848 0.000007919292687430462966 0.000002493372975692739581 0.000004728904485918281776
480.000000 -0.000004521232172801495858 -0.000002623869987794803687 0.000002599709052887136654 0.000007532944485824863366 0.000002377532869176341473 0.000004510738495905529311
482.000000 -0.000004302589719126534628 -0.000002498687283848585169 0.000002473211099748266383 0.000007167287696059329806 0.000002258744427612976972 0.000004282603759392944577
484.000000 -0.000004099297771870421579 -0.000002384685601150341550 0.000002348963800824702887 0.000006821129600179624791 0.000002152205466000976249 0.000004079258740139878064
486.000000 -0.000003888105054983917711 -0.000002247489678925640265 0.000002257329827752340870 0.000006506778966016583466 0.000002047456140512626476 0.000003878566702836566302
488.000000 -0.000003677091604156521050 -0.000002112375730237431106 0.000002163823646665264283 0.000006195839358274011644 0.000001932829821038069065 0.000003674105848553199907
490.000000 -0.000003498429384120359262 -0.000002004448812428719225 0.000002072913318403398928 0.000005912241537402249300 0.000001839587927264547945 0.000003493887833455283102
492.000000 -0.000003330884539276083275 -0.000001914179771049631282 0.000001965363893737891115 0.000005621697307163087273 0.000001749080523740852160 0.000003313770828202340917
494.000000 -0.000003158654362154333822 -0.000001800549647738189587 0.000001898432935528193274 0.000005375343108721761123 0.000001656834370879822774 0.000003143615186352922302
496.000000 -0.000003009769205897099330 -0.000001726507433582991256 0.000001787833851547848558 0.000005096553500203558035 0.000001580814152816691227 0.000002983642012255954769
498.000000 -0.000002871798678965023627 -0.000001653161099083097033 0.000001699551160633533920 0.000004855767537230614496 0.000001509848542371279782 0.000002841165541736526747
500.000000 -0.000002719283685223606489 -0.000001558861520877276238 0.000001624795496263317196 0.000004620771341053201283 0.000001432357445413830379 0.000002702877026725220165
502.000000 -0.000002584373877781918330 -0.000001476231957111881336 0.000001554860324110397826 0.000004410548930160121197 0.000001364023729566688741 0.000002568553622150008229
504.000000 -0.000002470088468276730706 -0.000001421955808345166663 0.000001458870498893885774 0.000004181056833540069145 0.000001305882069063296369 0.000002458211123688212401
506.000000 -0.000002354025007704870759 -0.000001352602350221585119 0.000001395690163973268420 0.000003990856820531626513 0.000001235674726791714381 0.000002335319820441306083
508.000000 -0.000002242867845196393361 -0.000001287602619885689030 0.000001336805570426251690 0.000003815088640697767519 0.000001185420001347935022 0.000002232450085311183282
510.000000 -0.000002144556968764860104 -0.000001241425311641234332 0.000001264948929112428894 0.000003634324118025500467 0.000001128016124074277465 0.000002121502866120188422
510.580000 -0.000002113967342594861832 -0.000001223198093513175929 0.000001248202075781686026 0.000003585844268731406707 0.000001115864221124331413 0.000002095420439069928509
